time,DELT1,DELT3,TRIlg,TRIlat,BIClg,BICsh,BRA,
0.0,0.03278310080423051,0.1597947450308929,0.05072924868552178,0.03875783887471385,0.015532006596277828,0.003417346133555681,0.0210036241231922,
0.0007941213569875316,0.032765005633667126,0.15947932927294325,0.049697639245949776,0.03869442767542854,0.015616127289809644,0.003447069129645496,0.0210788969817761,
0.0015882427139750632,0.032747746124863274,0.15916335886675612,0.04867555210835385,0.03863213731066248,0.01569941356839205,0.0034768333906286695,0.02115302583437926,
0.002382364070962595,0.03273132825628617,0.15884688276033287,0.04766315604374549,0.038570983086691,0.01578185160675025,0.0035066383263359876,0.021225977118652224,
0.0031764854279501265,0.03271575775300945,0.15852995334599065,0.046660616777010416,0.03851098112345579,0.015863428156501578,0.0035364834395182096,0.02129771837632346,
0.003970606784937658,0.0327010400841371,0.15821262649659612,0.04566809688261546,0.03845214832315276,0.015944130553179052,0.0035663683237126217,0.021368218277430958,
0.00476472814192519,0.032687180460199645,0.15789496159835853,0.04468575568301353,0.038394502338323894,0.016023946722806087,0.0035962926609864323,0.021437446643658226,
0.005558849498910945,0.032674183830521356,0.15757702158008208,0.04371374914980761,0.03833806153947804,0.01610286518801348,0.0036262562195587284,0.021505374470749,
0.0063529708558984765,0.0326620548805574,0.15725887293877952,0.04275222980773147,0.038282844982265744,0.01618087507369035,0.003656258851302896,0.02157197394997604,
0.007147092212886008,0.03265079802919967,0.15694058576155395,0.041801346641502014,0.038228872374233114,0.016257966112160984,0.003686300489131556,0.021637218488640232,
0.00794121356987354,0.032640417426050165,0.15662223374365744,0.04086124500559474,0.03817616404117973,0.01633412864788014,0.003716381144266245,0.021701082729577294,
0.008735334926861071,0.03263091694866092,0.15630389420264051,0.03993206653699075,0.03812474089314542,0.01640935364163957,0.0037465009033942507,0.021763542569650407,
0.009529456283848603,0.03262230019973949,0.15598564808850884,0.03901394907094081,0.03807462439005108,0.01648363267427926,0.0037766599257151256,0.021824575177208132,
0.010323577640836135,0.03261457050431916,0.1556675799898097,0.0381070265597886,0.03802583650701846,0.01655695794989718,0.003806858439879639,0.021884159008488106,
0.011117698997823666,0.0326077309068931,0.15534977813557393,0.03721142899489261,0.037978399699393976,0.01662932229855196,0.0038370967408240244,0.02194227382294815,
0.011911820354811198,0.032601784168511894,0.1550323343930445,0.03632728233168256,0.03793233686750182,0.0167007191784534,0.0038673751865025722,0.02199890069750758,
0.01270594171179873,0.0325967327638438,0.15471534426112682,0.03545470841788392,0.037887671321151714,0.016771142677636276,0.0038976941945217452,0.022054022039682864,
0.013500063068786261,0.03259257887819735,0.1543989068595021,0.03459382492494047,0.03784442674392676,0.016840587515113487,0.003928054238679161,0.022107621599602792,
0.014294184425773793,0.032589324404506306,0.15408312491335,0.033744745282662164,0.03780262715727669,0.01690904904150508,0.0039584558454109275,0.02215968448088975,
0.015088305782761324,0.032586970940276565,0.15376810473363078,0.03290757861712253,0.03776229688444217,0.01697652323914043,0.003988899590150938,0.02221019715039498,
0.015882427139748856,0.03258551978449553,0.15345395619288454,0.03208242969182679,0.037723460514235876,0.017043006721631376,0.004019386093605878,0.022259147446776994,
0.016676548496736388,0.032584971934504055,0.15314079269650935,0.03126939885216928,0.037686142864706416,0.01710849673291475,0.004049916017949809,0.022306524587913726,
0.01747066985372392,0.03258532808283178,0.152828731149486,0.030468581973195533,0.037650368946710845,0.017172991145763376,0.004080490062942306,0.02235231917714044,
0.01826479121071145,0.032586588613996506,0.15251789191852283,0.029680070410681658,0.037616163927421786,0.017236488459765234,0.00411110896197424,0.022396523208306377,
0.019058912567698982,0.032588753601268956,0.15220839878960038,0.02890395095554114,0.03758355309379541,0.017298987798771096,0.0041417734780453816,0.022439130069645038,
0.019853033924686514,0.03259182280340423,0.15190037892090147,0.02814030579156576,0.03755256181602632,0.01736048890781161,0.004172484399678121,0.022480134546453975,
0.020647155281674046,0.03259579566134189,0.1515939627911173,0.027389212456505153,0.037523215511015576,0.017420992149485413,0.004203242536771665,0.022519532822581522,
0.021441276638661577,0.03260067129487653,0.15128928414312778,0.026650743806486528,0.03749553960587799,0.01748049849982052,0.004234048716401144,0.022557322480719236,
0.02223539799564911,0.032606448499301374,0.15098647992305853,0.02592496798377344,0.037469559501515134,0.01753900954361178,0.004264903778566151,0.022593502501500145,
0.02302951935263664,0.032613125742027696,0.15068569021472505,0.025211948387859926,0.03744530053628031,0.017596527469237958,0.004295808571893288,0.02262807326140441,
0.023823640709624172,0.032620701159183176,0.15038705816947945,0.024511743649893735,0.03742278794976173,0.01765305506296255,0.004326763949297352,0.022661036529475327,
0.024617762066611704,0.03262917255219275,0.15009072993148204,0.023824407610419894,0.03740204684671025,0.017708595702723016,0.004357770763605855,0.022692395462849888,
0.025411883423599235,0.032638537384345835,0.14979685455842512,0.02314998930043308,0.037383102161138035,0.017763153351413857,0.0043888298631516,0.02272215460110969,
0.026206004780586767,0.032648792777354434,0.1495055839377447,0.022488532925725172,0.03736597862061425,0.017816732549669475,0.004419942087338071,0.022750319859459148,
0.0270001261375743,0.032659935507906565,0.14921707269836026,0.021840077854511763,0.037350700710784175,0.0178693384081535,0.0044511082621824715,0.022776898520739344,
0.02779424749456183,0.03267196200422029,0.14893147811798854,0.021204658608318976,0.03733729264013789,0.01792097659936179,0.004482329195841197,0.022801899226287246,
0.028588368851547585,0.03268486834260363,0.14864896002608555,0.02058230485610996,0.037325778305054395,0.017971653348946938,0.004513605674122612,0.022825331965651223,
0.029382490208535117,0.032698650244026226,0.14836968070247403,0.019973041411627715,0.03731618125514746,0.018021375426572728,0.004544938455991985,0.02284720806517516,
0.03017661156552265,0.03271330307070879,0.14809380477172152,0.01937688823392912,0.03730852465893904,0.0180701501363076,0.004576328269073437,0.022867540175464635,
0.03097073292251018,0.032728821822736856,0.1478214990933395,0.018793860431082655,0.03730283126988587,0.01811798530656675,0.0046077758051537975,0.022886342257749874,
0.03176485427949771,0.03274520113470542,0.147552932647878,0.018223968267000207,0.03729912339278506,0.01816488927961304,0.004639281715693218,0.022903629569161428,
0.03255897563648524,0.03276243527240148,0.14728827641899747,0.01766721717137152,0.03729742285058406,0.01821087090062742,0.004670846607347426,0.022919418646935384,
0.033353096993472775,0.03278051812953173,0.1470277032716033,0.017123607752667584,0.03729775095162058,0.018255939506360154,0.004702471037506491,0.02293372729156648,
0.03414721835046031,0.03279944322450271,0.14677138782613391,0.016593135814177488,0.0373001284573175,0.0183001049133746,0.004734155509854937,0.022946574548928136,
0.03494133970744784,0.03281920369726149,0.14651950632909766,0.016075792373041457,0.037304575550357696,0.01834337740589584,0.004765900469958061,0.022957980691379647,
0.03573546106443537,0.03283979230620418,0.1462722365199586,0.015571563682240738,0.03731111180336367,0.018385767723276845,0.004797706300879249,0.022967967197881762,
0.0365295824214229,0.032861201425161066,0.14602975749447597,0.015080431255503438,0.03731975614810641,0.01842728704709541,0.004829573318833133,0.022976556733142844,
0.03732370377841043,0.03288342304046601,0.14579224956460476,0.014602371895083678,0.03733052684526791,0.018467946987895424,0.004861501768879333,0.02298377312581861,
0.038117825135397965,0.03290644874811901,0.14555989411507192,0.014137357722369707,0.037343441454781454,0.018507759571586554,0.004893491820661592,0.022989641345789576,
0.038911946492385496,0.03293026975105028,0.14533287345674317,0.013685356211275104,0.03735851680677353,0.018546737225516734,0.004925543564197003,0.022994187480540842,
0.03970606784937303,0.0329548768564946,0.14511137067690233,0.013246330224365655,0.0373757689731307,0.018584892764232277,0.00495765700572004,0.022997438710670094,
0.04050018920636056,0.032980260473484534,0.14489556948656646,0.012820238051673035,0.03739521323971506,0.018622239374940754,0.0049898320635860995,0.022999423284549975,
0.04129431056334809,0.03300641061047154,0.14468565406496525,0.012407033452145095,0.03741686407925122,0.018658790602692214,0.005022068564239167,0.023000170492172164,
0.04208843192033562,0.033033316873083675,0.14448180890131465,0.012006665697681097,0.037440735124907615,0.018694560335294666,0.005054366238248232,0.022999710638200964,
0.042882553277323154,0.03306096846202869,0.14428421863401877,0.011619079619699116,0.03746683914459433,0.01872956278797982,0.005086724716417028,0.02299807501426488,
0.043676674634310686,0.03308935417115161,0.14409306788743725,0.011244215658181487,0.037495188015999735,0.018763812487835676,0.005119143525971626,0.022995295870515377,
0.04447079599129822,0.033118462385655585,0.14390854110635815,0.010882009913143156,0.03752579270238731,0.018797324258022604,0.005151622086830382,0.022991406386482543,
0.04526491734828575,0.033148281080494675,0.1437308223883177,0.01053239419846661,0.03755866322917426,0.018830113201789917,0.005184159707960684,0.02298644064125777,
0.04605903870527328,0.033178797818947496,0.14356009531391212,0.010195296098046073,0.03759380866131224,0.018862194686310087,0.0052167555838268775,0.022980433583034195,
0.04685316006226081,0.03320999975138022,0.14339654277524877,0.009870639024182688,0.03763123708149081,0.0188935843263479,0.005249408790933717,0.022973420998036093,
0.047647281419248344,0.03324187361420765,0.1432403468026849,0.009558342278171468,0.037670955569183415,0.01892429796778223,0.005282118284469617,0.022965439478868706,
0.048441402776235876,0.033274405729060604,0.1430916883900062,0.009258321113019916,0.03771297018055497,0.018954351670997866,0.005314882895053918,0.02295652639232024,
0.04923552413322341,0.03330758200216804,0.14295074731819732,0.008970486798237465,0.03775728592925008,0.01898376169416529,0.005347701325592317,0.022946719846648336,
0.05002964549021094,0.03334138792396195,0.14281770197796026,0.008694746686634064,0.03780390676807973,0.01901254447642615,0.00538057214824452,0.022936058658383274,
0.05082376684719847,0.03337580856891314,0.14269272919113546,0.00843100428306558,0.03785283557162407,0.01904071662100234,0.005413493801508141,0.02292458231868054,
0.051617888204186,0.0334108285956055,0.14257600403118398,0.008179159315063014,0.03790407411976817,0.019068294878246503,0.0054464645874227535,0.022912330959255416,
0.05241200956117176,0.03344643224705659,0.1424676996428897,0.007939107805281943,0.03795762308218691,0.019095296128651944,0.00547948266889794,0.022899345317932484,
0.05320613091815929,0.03348260335129166,0.14236798706144135,0.007710742145708072,0.03801348200379457,0.01912173736583966,0.005512546067169093,0.022885666703842934,
0.05400025227514682,0.03351932532217859,0.14227703503105577,0.00749395117355424,0.03807164929117381,0.01914763567954037,0.005545652659384647,0.022871336962302657,
0.05479437363213435,0.03355658116053039,0.1421950098233033,0.0072886202487838225,0.03813212219999808,0.019173008238589157,0.005578800176328283,0.022856398439403847,
0.055588494989121884,0.033594353455482055,0.14212207505529784,0.007094631333195063,0.03819489682346042,0.01919787227395038,0.005611986200279661,0.02284089394635317,
0.056382616346109415,0.0336326243861483,0.14205839150791386,0.006911863071000548,0.03825996808172116,0.019222245061790405,0.005645208163016993,0.022824866723589084,
0.05717673770309695,0.0336713757235682,0.1420041169441932,0.006740190870835719,0.03832732971238599,0.019246143906615314,0.005678463343964766,0.022808360404711073,
0.05797085906008448,0.03371058883294285,0.14195940592810444,0.006579486989130092,0.03839697426202467,0.019269586124490864,0.005711748868489767,0.02279141898025324,
0.05876498041707201,0.033750244676171534,0.141924409643818,0.006429620614774629,0.03846889307874048,0.019292589026361693,0.005745061706348456,0.02277408676133448,
0.05955910177405954,0.0337903238146919,0.141899275715659,0.006290457955018562,0.03854307630579855,0.019315169901486445,0.005778398670288614,0.02275640834321734,
0.060353223131047073,0.03383080641262913,0.14188414802890015,0.006161862322528849,0.038619512876321,0.01933734600100544,0.005811756414808057,0.02273842856880719,
0.061147344488034605,0.03387167224025881,0.14187916655155614,0.006043694223545393,0.03869819050905537,0.019359134521657172,0.005845131435073084,0.022720192492123256,
0.06194146584502214,0.033912900677788085,0.1418844671573406,0.0059358114470650526,0.03877909570522184,0.01938055258965964,0.0058785200659992,0.02270174534177247,
0.06273558720200967,0.033954470719459014,0.14190018144994593,0.005838069154987518,0.03886221374644393,0.019401617244772303,0.005911918481496473,0.022683132484456997,
0.0635297085589972,0.033996360977977966,0.14192643658880466,0.005750319973156182,0.03894752869376581,0.019422345424554066,0.005945322693881813,0.02266439938854565,
0.06432382991598473,0.03403854968927441,0.1419633551164915,0.005672414083227169,0.03903502338775863,0.019442753948832547,0.005978728553460203,0.022645591587739065,
0.06511795127297226,0.03408101471759217,0.14201105478792242,0.005604199315299807,0.03912467944971682,0.019462859504399233,0.006012131748276834,0.022626754644858076,
0.0659120726299598,0.03412373356091574,0.14206964840150718,0.005545521241242001,0.0392164772839445,0.019482678629945155,0.006045527804041954,0.022607934115784066,
0.06670619398694733,0.034166683356733916,0.14213924363240996,0.005496223268644169,0.039310396081130565,0.019502227701251026,0.006078912084229995,0.022589175513579758,
0.06750031534393486,0.03420984088814251,0.1422199428680716,0.005456146735335596,0.03940641382281026,0.01952152291664557,0.00611227979035448,0.022570524272818162,
0.06829443670092239,0.034253182590287846,0.14231184304614491,0.005425131004397347,0.039504507286909296,0.019540580282745315,0.00614562596241995,0.022552025714146943,
0.06908855805790992,0.03429668455715193,0.14241503549499432,0.005403013559606187,0.03960465205436609,0.01955941560048869,0.006178945479552045,0.022533725009114887,
0.06988267941489745,0.034340322548679976,0.1425296057769087,0.005389630101244282,0.03970682251682574,0.019578044451476845,0.00621223306080667,0.022515667145286397,
0.07067680077188498,0.0343840719982509,0.14265563353417454,0.005384814642209846,0.03981099188539871,0.019596482184633064,0.006245483266159005,0.022497896891669495,
0.07147092212887252,0.03442790802049028,0.14279319233815613,0.005388399604364296,0.0399171322004757,0.01961474390319231,0.006278690497672918,0.022480458764482007,
0.07226504348586005,0.034471805419425565,0.1429423495415268,0.005400215915051965,0.04002521434258915,0.019632844452031867,0.006311849000851173,0.02246339699327998,
0.07305916484284758,0.03451573869698252,0.14310316613379465,0.0054200931037288345,0.04013520804431041,0.019650798405353553,0.006344952866166644,0.022446755487471808,
0.07385328619983511,0.034559682061821737,0.1432756966002637,0.005447859398637361,0.040247081903170535,0.01966862005472751,0.006377996030774538,0.022430577803240582,
0.07464740755682264,0.03460360943851353,0.1434599887845707,0.00548334182346493,0.0403608033955914,0.019686323397507092,0.006410972280405435,0.022414907110896873,
0.0754415289138084,0.034647494477049144,0.1436560837549352,0.005526366293924153,0.040476338891812784,0.01970392212562374,0.006443875251438771,0.022399786162683084,
0.07623565027079593,0.03469131056268582,0.14386401567425955,0.005576757714193755,0.040593653671799845,0.01972142961477024,0.006476698433156201,0.02238525726105006,
0.07702977162778346,0.0347350308261232,0.14408381167421352,0.005634340073159554,0.040712711942114226,0.01973885891398033,0.006509435170174063,0.022371362227425806,
0.07782389298477099,0.03477862815400766,0.14431549173343597,0.005698936540395589,0.040833476853730746,0.01975622273561192,0.006542078665053969,0.022358142371495478,
0.07861801434175852,0.03482207519976125,0.14455906855998463,0.005770369561826347,0.04095591052078098,0.01977353344574073,0.006574621981090357,0.022345638461011022,
0.07941213569874606,0.03486534439473126,0.14481454747816344,0.005848460955011631,0.04107997404020326,0.01979080305497069,0.006607058045273623,0.02233389069214817,
0.08020625705573359,0.034908407959656156,0.14508192631985442,0.005933032003996492,0.04120562751227823,0.019808043209666712,0.00663937965142731,0.022322938660427873,
0.08100037841272112,0.03495123791644348,0.14536119532047817,0.006023903553669428,0.041332830062027655,0.019825265183615125,0.006671579463517534,0.022312821332218295,
0.08179449976970865,0.03499380610025457,0.14565233701970706,0.006120896103572909,0.0414615398614533,0.019842479870116284,0.006703650019132722,0.022303577016833068,
0.08258862112669618,0.035036084171890934,0.14595532616705068,0.006223829901111174,0.041591714152591684,0.019859697774513612,0.0067355837331315145,0.022295243339240604,
0.08338274248368371,0.035078043630476535,0.14627012963243288,0.006332525034101088,0.0417233092713594,0.019876929007162397,0.0067673729014564865,0.022287857213398706,
0.08417686384067125,0.03511965582643006,0.14659670632187555,0.006446801522612849,0.04185628067216315,0.019894183276841556,0.00679900970511117,0.022281454816227887,
0.08497098519765878,0.03516089197472072,0.14693500709840296,0.006566479410048284,0.04199058295324752,0.01991146988461081,0.006830486214297671,0.022276071562236346,
0.08576510655464631,0.035201723168400936,0.14728497470827648,0.00669137885340541,0.042126169882752695,0.019928797718115294,0.006861794392711957,0.022271742078808533,
0.08655922791163384,0.03524212039240889,0.14764654371266916,0.006821320212679002,0.042262994425453726,0.01994617524633902,0.006892926101993825,0.022268500182168992,
0.08735334926862137,0.035282054537633493,0.14801964042488383,0.006956124139347915,0.042401008770151995,0.019963610514808165,0.006923873106328251,0.022266378854032244,
0.0881474706256089,0.03532149641523415,0.14840418285321846,0.007095611663900996,0.042540164357689,0.01998111114124472,0.006954627077194752,0.02226541021894893,
0.08894159198259644,0.035360416771207354,0.14880008064957675,0.007239604282354455,0.04268041190955205,0.01999868431167044,0.006985179598261206,0.022265625522357807,
0.08973571333958397,0.03539878630119162,0.14920723506392133,0.007387924041714714,0.042821701457040694,0.020016336776960623,0.00701552217041842,0.02226705510935269,
0.0905298346965715,0.03543657566550252,0.1496255389046625,0.007540393624341811,0.042963982370962196,0.0200340748498468,0.00704564621695156,0.02226972840417268,
0.09132395605355903,0.03547375550438881,0.1500548765050721,0.007696836431169621,0.0431072033918241,0.02005190440236693,0.00707554308884444,0.022273673890423642,
0.09211807741054656,0.03551029645350063,0.15049512369580983,0.007857076663740276,0.0432513126604913,0.020069830863761334,0.00710520407021253,0.02227891909203826,
0.0929121987675341,0.03554616915956044,0.15094614778364357,0.00802093940501133,0.04339625774927503,0.02008785921881221,0.007134620383860365,0.0222854905549815,
0.09370632012452162,0.03558134429622726,0.1514078075364438,0.008188250698895403,0.04354198569342061,0.020105994006624012,0.007163783196958962,0.022293413829707807,
0.09450044148150916,0.035615792580144405,0.15187995317452785,0.008358837628493236,0.04368844302296094,0.02012423931984171,0.007192683626838702,0.022302713454375924,
0.09529456283849669,0.03564948478716085,0.152362426368425,0.00853252839298237,0.04383557579490222,0.02014259880430359,0.0072213127468930055,0.02231341293882666,
0.09608868419548422,0.03568239176871607,0.1528550602431307,0.008709152383124745,0.04398332962570849,0.020161075659124884,0.007249661592588037,0.02232553474932865,
0.09688280555247175,0.035714484468377904,0.15335767938891318,0.008888540255357924,0.04413164972405178,0.020179672637208112,0.007277721167573574,0.02233910029409661,
0.09767692690945928,0.03574573393852306,0.15387009987873315,0.009070524004435797,0.04428048092379443,0.020198392046175788,0.007305482449890044,0.022354129909586243,
0.09847104826644681,0.03577611135714929,0.1543921292923312,0.00925493703458591,0.044429767717170554,0.02021723574972073,0.007332936398266684,0.022370642847569736,
0.09926516962343257,0.035805588044808594,0.1549235667470346,0.009441614229151931,0.04457945428813391,0.02023620516936906,0.007360073958505665,0.022388657262995264,
0.1000592909804201,0.03583413548165015,0.15546420293533017,0.009630392018690962,0.04472948454583948,0.02025530128665059,0.007386886069946961,0.022408190202633786,
0.10085341233740763,0.03586172532456167,0.1560138201692448,0.009821108447496752,0.044879802158227004,0.020274524645671154,0.007413363672008682,0.022429257594516177,
0.10164753369439516,0.03588832942439779,0.15657219243157175,0.010013603238521194,0.045030350585674665,0.020293875356081088,0.007439497710797501,0.022451874238163312,
0.1024416550513827,0.035913919843283924,0.15713908543397484,0.010207717856667796,0.04518107311469201,0.020313353096433902,0.007465279145783768,0.02247605379561189,
0.10323577640837023,0.0359384688719837,0.157714256681999,0.010403295570432168,0.04533191289162181,0.02033295711792914,0.007490698956535861,0.022501808783238274,
0.10402989776535776,0.035961949047317886,0.1582974555470089,0.010600181511865911,0.04548281295632122,0.020352686248533116,0.00751574814950829,0.02252915056438266,
0.10482401912234529,0.035984333169622795,0.15888842334507275,0.010798222734841588,0.04563371627579344,0.020372538897471013,0.00754041776487797,0.022558089342775686,
0.10561814047933282,0.03600559432023569,0.15948689342280387,0.010997268271597893,0.045784565777741836,0.020392513060083956,0.0075646988834231176,0.022588634156769587,
0.10641226183632035,0.036025705878994764,0.16009259125016556,0.011197169187545389,0.045935304384019264,0.02041260632304416,0.007588582633439101,0.022620792874375954,
0.10720638319330789,0.03604464154174106,0.16070523452024105,0.011397778634314631,0.04608587504394621,0.020432815869921402,0.007612060197685662,0.022654572189111915,
0.10800050455029542,0.03606237533780941,0.16132453325596255,0.011598951901029783,0.046236220767472296,0.020453138487093847,0.007635122820359808,0.022689977616656625,
0.10879462590728295,0.03607888164749557,0.16195018992378893,0.01180054646379226,0.0463862846581565,0.020473570569996217,0.007657761814088696,0.022727013492319814,
0.10958874726427048,0.0360941352194864,0.1625818995543156,0.012002422033360195,0.04653600994594261,0.020494108129698114,0.007679968566936825,0.022765682969324106,
0.11038286862125801,0.03610811118823997,0.16321934986979342,0.012204440601011071,0.046685340019706784,0.020514746799805236,0.007701734549421828,0.022805988017902862,
0.11117698997824554,0.0361207850913021,0.16386222141852716,0.01240646648257597,0.046834218459555675,0.020535481843676102,0.007723051321533157,0.022847929425214908,
0.11197111133523308,0.03613213288654596,0.16451018771611828,0.012608366360635535,0.046982589068854066,0.020556308161946778,0.007743910539747956,0.022891506796077897,
0.11276523269222061,0.03614213096932146,0.16516291539351038,0.012810009324868869,0.0471303959059619,0.020577220300356,0.007764303964038401,0.022936718554521594,
0.11355935404920814,0.03615075618950049,0.16582006435178878,0.013011266910548174,0.04727758331566202,0.020598212457863096,0.007784223464864834,0.022983561946162575,
0.11435347540619567,0.03615798586840481,0.1664812879236797,0.01321201313517309,0.047424095960260135,0.0206192784950509,0.007803661030149007,0.02303203304140157,
0.1151475967631832,0.03616379781560252,0.16714623304168863,0.013412124533240212,0.04756987885034003,0.020640411942805824,0.007822608772221741,0.023082126739444635,
0.11594171812017073,0.03616817034555959,0.16781454041280916,0.013611480189144527,0.04771487737515796,0.020661606011267195,0.007841058934739345,0.02313383677314926,
0.11673583947715827,0.03617108229413259,0.1684858446997295,0.013809961768210874,0.04785903733266055,0.02068285359903793,0.007859003899563137,0.02318715571469639,
0.1175299608341458,0.03617251303488876,0.16915977470845556,0.01400745354585479,0.048002304959112285,0.02070414730264838,0.007876436193596448,0.023242074982089158,
0.11832408219113333,0.036172442495239585,0.16983595358226342,0.014203842434873564,0.04814462695831881,0.020725479426265316,0.007893348495573499,0.023298584846479044,
0.11911820354812086,0.03617085117237379,0.17051399900188752,0.014399018010869484,0.04828595053043352,0.02074684199163796,0.007909733642794573,0.02335667444031984,
0.11991232490510839,0.036167720148976,0.1711935233918447,0.014592872535808666,0.04842622340033586,0.020768226748272934,0.00792558463780193,0.023416331766349933,
0.12070644626209592,0.036163031108716985,0.1718741341327872,0.014785300979720053,0.04856539384557028,0.020789625183829777,0.007940894654990939,0.023477543707402845,
0.12150056761908345,0.036156766351501446,0.1725554337797721,0.01497620104054043,0.04870341072383572,0.020811028534729038,0.00795565704715094,0.023540296037045893,
0.12229468897607099,0.03614890880845943,0.17323702028632837,0.01516547316211253,0.048840223500016364,0.020832427796964585,0.00796986535193043,0.02360457343104661,
0.12308881033305674,0.036139442056667255,0.17391848723419479,0.01535302055034455,0.04897578227274496,0.02085381373711195,0.007983513298221159,0.023670359479666184,
0.12388293169004427,0.03612835033358396,0.17459942406859744,0.01553874918754061,0.0491100378004909,0.02087517690352453,0.00799659481245582,0.023737636700779063,
0.1246770530470318,0.03611561855118935,0.17527941633892813,0.015722567844912817,0.049242941527165775,0.02089650763770942,0.008009104024814058,0.02380638655381733,
0.12547117440401934,0.03610123230980964,0.17595804594467898,0.015904388093286752,0.04937444560724011,0.02091779608587471,0.008021035275331571,0.023876589454538088,
0.12626529576100687,0.03608517791161677,0.17663489138648295,0.01608412431201339,0.049504502930365235,0.020939032210640113,0.008032383119907224,0.023948224790611827,
0.1270594171179944,0.036067442373787575,0.17730952802210176,0.016261693696101538,0.04963306714549524,0.020960205802902792,0.008043142336203107,0.024021270938029193,
0.12785353847498193,0.036048013441309174,0.1779815283271988,0.016437016261586057,0.04976009268450448,0.020981306493850285,0.00805330792943259,0.024095705278323117,
0.12864765983196946,0.03602687959941691,0.17865046216072636,0.01661001484914811,0.04988553478529669,0.02100232376711244,0.008062875138031533,0.02417150421660278,
0.129441781188957,0.03600403008565141,0.17931589703475165,0.016780615126004882,0.050009349514402474,0.021023246971044355,0.008071839439207869,0.024248643200395353,
0.13023590254594453,0.03597945490152149,0.17997739838853907,0.016948745586087225,0.05013149378906245,0.021044065331132292,0.00808019655436498,0.02432709673929083,
0.13103002390293206,0.035953144823759824,0.18063452986670017,0.017114337548524577,0.05025192539879429,0.02106476796251464,0.008087942454394318,0.024406838425384672,
0.1318241452599196,0.03592509141515831,0.18128685360121652,0.017277325154457804,0.05037060302644174,0.021085343882609905,0.008095073364832934,0.024487840954512414,
0.13261826661690712,0.03589528703497069,0.18193393049713552,0.01743764536220137,0.050487486268705146,0.021105782023843948,0.008101585770881664,0.024570076148269563,
0.13341238797389465,0.03586372484886975,0.18257532052173137,0.017595237940777313,0.050602535656153025,0.021126071246468488,0.008107476422279943,0.02465351497680954,
0.13420650933088218,0.03583039883844717,0.18321058299691845,0.017750045461844492,0.05071571267271505,0.021146200351463182,0.008112742338033252,0.024738127582411625,
0.13500063068786972,0.035795303810243956,0.1838392768946986,0.017902013290047473,0.05082697977465727,0.02116615809351342,0.008117380810989488,0.02482388330381014,
0.13579475204485725,0.03575843540430024,0.18446096113541663,0.018051089571810206,0.05093630040904091,0.021185933194056147,0.008121389412260626,0.024910750701275446,
0.13658887340184478,0.0357197901022128,0.18507519488859486,0.018197225222600734,0.05104363903166666,0.021205514354385988,0.008124765995486213,0.02499869758243635,
0.1373829947588323,0.03567936523468994,0.18568153787610872,0.01834037391269382,0.05114896112450662,0.021224890268814196,0.008127508700935407,0.02508769102883277,
0.13817711611581984,0.03563715898859284,0.18627955067746213,0.018480492051459324,0.05125223321262672,0.021244049637872697,0.008129615959444414,0.025177697423186738,
0.13897123747280737,0.0355931704134538,0.18686879503691523,0.018617538770204826,0.051353422880602455,0.021262981181555913,0.008131086496186362,0.025268682477378845,
0.1397653588297949,0.03554739942746148,0.1874488341722115,0.018751475903601853,0.05145249878843151,0.021281673652592765,0.008131919334270795,0.025360611261116533,
0.14055948018678244,0.03549984682290425,0.18801923308464655,0.018882267969725634,0.05154943068694676,0.02130011584974141,0.00813211379817013,0.02545344823127951,
0.14135360154376997,0.035450514271062945,0.1885795588702153,0.019009882148739134,0.051644189432733474,0.021318296631099423,0.008131669516970584,0.025547157261927012,
0.1421477229007575,0.03539940432654512,0.1891293810315695,0.019134288260252617,0.05173674700255499,0.021336204927421963,0.00813058642744523,0.02564170167495049,
0.14294184425774503,0.03534652043105313,0.18966827179051315,0.019255458739390593,0.051827076507291,0.021353829755440704,0.00812886477694704,0.02573704427135455,
0.14373596561473256,0.035291866916579206,0.19019580640075884,0.01937336861159873,0.05191515220539293,0.021371160231176183,0.008126505126119876,0.02583314736314791,
0.1445300869717201,0.035235449008021225,0.1907115634606646,0.019487995466223748,0.052000949515860775,0.0213881855832363,0.008123508351425598,0.0259299728058254,
0.14532420832870763,0.0351772728252134,0.19121512522566503,0.019599319428899826,0.052084445030746336,0.021404895166093695,0.0081198756474856,0.026027482031421127,
0.14611832968569338,0.03511734538436701,0.1917060779201095,0.019707323132775536,0.052165616527187035,0.021421278473334766,0.008115608529235261,0.02612563608211197,
0.1469124510426809,0.03505567459891659,0.1921840120482139,0.019811991688615745,0.05224444297897521,0.02143732515087316,0.008110708833889962,0.02622439564434965,
0.14770657239966845,0.03499226927976806,0.1926485227038312,0.01991331265381339,0.05232090456766747,0.021453025010120478,0.008105178722721446,0.026323721083498793,
0.14850069375665598,0.034927139134945516,0.1930992098787432,0.020011276000346315,0.052394982693238605,0.021468368041107022,0.008099020682643482,0.026423572478957484,
0.1492948151136435,0.03486029476863438,0.1935356787691724,0.020105874081714697,0.05246665998428439,0.021483344425545454,0.008092237527605937,0.026523909659736052,
0.15008893647063104,0.03479174767961927,0.19395754008021107,0.020197101598894852,0.05253592030777779,0.02149794454983015,0.0080848323997965,0.026624692240468976,
0.15088305782761857,0.03472151025911541,0.19436441032786356,0.020284955565345604,0.052602748778382426,0.021512159017965198,0.008076808770649492,0.026725879657833847,
0.1516771791846061,0.03464959578799345,0.19475591213839524,0.02036943527110335,0.05266713176732737,0.021525978664413904,0.008068170441661256,0.026827431207350608,
0.15247130054159364,0.03457601843339786,0.19513167454468064,0.020450542246002328,0.0527290569108466,0.02153939456686276,0.008058921545011801,0.026929306080533545,
0.15326542189858117,0.03450079324476003,0.19549133327924398,0.020528280222056633,0.052788513118186685,0.02155239805889286,0.008049066543992525,0.02703146340236761,
0.1540595432555687,0.034423936149207655,0.19583453106368315,0.020602655095040567,0.05284549057918536,0.021564980742551695,0.008038610233239867,0.027133862269079913,
0.15485366461255623,0.034345463946372834,0.19616091789417006,0.02067367488530419,0.05289998077142377,0.021577134500818367,0.008027557738774975,0.02723646178617659,
0.15564778596954376,0.034265394302601976,0.1964701513227194,0.020741349697860692,0.052951976466954466,0.021588851509955192,0.008015914517849469,0.027339221106714603,
0.1564419073265313,0.03418374574457127,0.1967618967339202,0.020805691681782323,0.053001471738606774,0.021600124251738656,0.008003686358597523,0.02744209946977724,
0.15723602868351882,0.03410053765231213,0.19703582761682517,0.02086671498894157,0.05304846196587108,0.021610945525562763,0.007990879379494619,0.027545056239121363,
0.15803015004050636,0.03401579025165175,0.1972916258316957,0.02092443573213425,0.053092943840362436,0.021621308460407718,0.007977500028623396,0.027648050941964115,
0.1588242713974939,0.033929524606074554,0.1975289818713019,0.020978871942621,0.05313491537086415,0.021631206526666884,0.007963555082747036,0.02775104330787599,
0.15961839275448142,0.03384176260801079,0.1977475951164824,0.021030043527123586,0.05317437588795096,0.021640633547824875,0.007949051646190863,0.027853993307746613,
0.16041251411146895,0.033752526969559694,0.19794717408566845,0.021077972224312267,0.05321132604819097,0.021649583711979867,0.00793399714953275,0.027956861192789246,
0.16120663546845648,0.03366184121265445,0.19812743667808472,0.02112268156082028,0.053245767837925145,0.02165805158320273,0.007918399348103115,0.0280596075335494,
0.16200075682544401,0.0335697296586773,0.19828811041034133,0.021164196806821328,0.05327770457662249,0.02166603211272598,0.007902266320295382,0.02816219325888254,
0.16279487818243155,0.03347621741753357,0.19842893264613762,0.021202544931205713,0.05330714091980845,0.021673520649955223,0.007885606465687745,0.02826457969486543,
0.16358899953941908,0.03338133037619366,0.19854965081880374,0.02123775455639051,0.05333408286156378,0.021680512953295917,0.00786842850297728,0.028366728603605392,
0.1643831208964066,0.033285095186712715,0.19865002264641216,0.021269855912799028,0.05335853773659031,0.02168700520078811,0.00785074146772741,0.028468602221911263,
0.16517724225339414,0.03318753925373807,0.19872981633919864,0.02129888079304417,0.053380514221839516,0.021692994000541862,0.007832554709929862,0.028570163299789755,
0.16597136361038167,0.03308869072151501,0.19878881079903835,0.021324862505850493,0.053400022337699415,0.021698476400965883,0.007813877891382316,0.028671375138730422,
0.1667654849673692,0.032988578460401666,0.19882679581073312,0.02134783582974896,0.05341707344873463,0.021703449900782,0.007794720982882969,0.028772201629742408,
0.16755960632435674,0.03288723205290437,0.19884357222487098,0.021367836966578412,0.05343168026397412,0.02170791245881791,0.007775094261243339,0.028872607291105936,
0.16835372768134427,0.032784681779245164,0.19883895213203232,0.02138490349482711,0.05344385683674061,0.021711862503570586,0.00775500830612061,0.028972557305801377,
0.1691478490383318,0.03268095860247331,0.19881275902812345,0.021399074322847485,0.053453618564014774,0.021715298942532754,0.007734473996670967,0.02907201755857867,
0.16994197039531755,0.03257609415313313,0.198764827970631,0.021410389641976786,0.05346098218532754,0.02171822117127463,0.007713502508025401,0.02917095467262975,
0.17073609175230509,0.03247012071350078,0.19869500572560125,0.021418890879595857,0.05346596578117274,0.02172062908227303,0.007692105307589475,0.029269336045826606,
0.17153021310929262,0.0323630712014027,0.19860315090515887,0.02142462065215785,0.05346858877093226,0.021722523073480035,0.007670294151168624,0.029367129886487982,
0.17232433446628015,0.03225497915362893,0.19848913409539365,0.02142762271821826,0.05346887191030548,0.02172390405662306,0.007648081078920539,0.02946430524863735,
0.17311845582326768,0.03214587870895452,0.1983528379744545,0.02142794193149704,0.05346683728823398,0.021724773465228307,0.00762547841113635,0.029560832066715274,
0.1739125771802552,0.03203580459078262,0.19819415742070332,0.02142562419400321,0.05346250832331275,0.021725133262359232,0.007602498743852294,0.029656681189709225,
0.17470669853724274,0.03192479208942297,0.19801299961079624,0.02142071640925176,0.05345590975967826,0.021724985948061798,0.007579154944293609,0.029751824414664327,
0.17550081989423028,0.03181287704401983,0.19780928410757112,0.021413266435602138,0.05344706766236391,0.021724334566508,0.007555460146152461,0.029846234519538713,
0.1762949412512178,0.03170009582414351,0.19758294293763695,0.02140332303974703,0.05343600941211268,0.021723182712829227,0.007531427744701765,0.029939885295367452,
0.17708906260820534,0.031586485311059904,0.19733392065857366,0.02139093585037949,0.05342276369963706,0.02172153453963074,0.007507071391746803,0.03003275157769939,
0.17788318396519287,0.03147208287869241,0.19706217441566648,0.021376155312065912,0.05340736051931548,0.021719394763178735,0.007482404990416551,0.030124809277271833,
0.1786773053221804,0.031356926374291105,0.19676767398811415,0.021359032639351735,0.05338983116231511,0.021716768669251072,0.007457442689796763,0.030216035409888053,
0.17947142667916793,0.03124105409882397,0.1964504018246653,0.021339619771126122,0.053370208209129875,0.02171366211864303,0.0074321988794068174,0.030306408125463535,
0.18026554803615547,0.031124504787105066,0.19611035306865207,0.02131796932527113,0.053348525521523193,0.02171008155231904,0.00740668818352246,0.030395906736207103,
0.181059669393143,0.031007317587674905,0.19574753557240537,0.021294134553620322,0.05332481823386454,0.021706033996201655,0.007380925455346593,0.030484511743903882,
0.18185379075013053,0.03088953204244809,0.19536196990105184,0.02126816929725106,0.053299122743849014,0.02170152706558872,0.007354925771030318,0.030572204866267542,
0.18264791210711806,0.03077118806614372,0.19495368932570756,0.021240127942133896,0.0532714767025887,0.021696568969189825,0.007328704423546483,0.030658969062330024,
0.1834420334641056,0.03065232592551391,0.19452273980609538,0.021210065375161947,0.05324191900406556,0.021691168512773244,0.00730227691641809,0.0307447885568377,
0.18423615482109312,0.03053298621838618,0.1940691799626305,0.02117803694058234,0.053210489773934846,0.02168533510241438,0.00727565895730393,0.030829648863623507,
0.18503027617808065,0.03041320985253499,0.19359308103802944,0.02114409839685114,0.053177230357668706,0.021679078747336815,0.007248866451443912,0.030913536807925694,
0.1858243975350682,0.030293038024398332,0.19309452684851397,0.021108305873932462,0.05314218330802933,0.021672410062337177,0.007221915494966595,0.030996440547624297,
0.18661851889205572,0.030172512197655165,0.1925736137246932,0.021070715831061734,0.053105392371861695,0.021665340269785054,0.007194822368061492,0.031078349593367784,
0.18741264024904325,0.030051674081679393,0.19203045044222006,0.021031385014992278,0.05306690247619586,0.02165788120118938,0.0071676035280188,0.031159254827562845,
0.18820676160603078,0.029930565609886293,0.19146515814233117,0.02099037041874387,0.05302675971364881,0.021650045298322578,0.00714027560213925,0.031239148522201655,
0.1890008829630183,0.029809228917987294,0.1908778702423918,0.020947729240870912,0.05298501132711701,0.021641845613894168,0.007112855380516803,0.03131802435550148,
0.18979500432000584,0.029687706322168817,0.19026873233657868,0.020903518845267408,0.05294170569375003,0.021633295811765436,0.0070853598086970705,0.03139587742733299,
0.19058912567699338,0.029566040297211126,0.18963790208684575,0.020857796721525056,0.05289689230819726,0.021624410166696896,0.00705780598021427,0.03147270427341439,
0.1913832470339809,0.029444273454562884,0.1889855491043275,0.02081062044586005,0.05285062176511889,0.02161520356362064,0.007030211129009719,0.0315485028782499,
0.19217736839096844,0.02932244852038719,0.18831185482134696,0.020762047642623557,0.0528029457409537,0.021605691496429658,0.0070025926217348,0.031623272686792075,
0.1929714897479542,0.029200608313594664,0.1876170123542043,0.020712135946410106,0.052753916974936525,0.021595890066276668,0.006974967949941489,0.03169701461480862,
0.19376561110494173,0.029078795723879305,0.18690122635693213,0.020660942964777274,0.05270358924935874,0.021585815979374905,0.006947354722163558,0.03176973105793576,
0.19455973246192926,0.028957053689772375,0.18616471286621242,0.020608526241589566,0.05265201736906587,0.021575486544293764,0.006919770655891635,0.031841425899401275,
0.1953538538189168,0.028835425176729816,0.18540769913765948,0.020554943220998514,0.05259925714018723,0.021564919668742355,0.006892233569445347,0.03191210451640166,
0.19614797517590432,0.02871395315526837,0.18463042347368072,0.020500251212070417,0.052545365348092996,0.02155413385583442,0.00686476137374591,0.03198177378511945,
0.19694209653289185,0.02859268057916557,0.1838331350431349,0.020444507354072407,0.05249039973457493,0.021543148199828405,0.006837372063992492,0.03205044208436747,
0.19773621788987938,0.028471650363738558,0.1830160936930145,0.020387768582426934,0.05243441897424828,0.021531982381336627,0.006810083711245853,0.032118119297848906,
0.19853033924686692,0.028350905364216583,0.18217956975238672,0.02033009159534395,0.05237748265017282,0.021520656661998008,0.006782914453922766,0.032184816815022714,
0.19932446060385445,0.02823048835422171,0.18132384382883218,0.020271532821139703,0.05231965122869176,0.021509191878609214,0.006755882489204825,0.032250547530566,
0.20011858196084198,0.028110442004372224,0.18044920659762717,0.020212148386250076,0.0522609860334887,0.02149760943670939,0.0067290060643652935,0.03231532584242584,
0.2009127033178295,0.027990808861022873,0.17955595858391962,0.020151994083946117,0.05220154921886338,0.021485931303614248,0.006702303468017768,0.03237916764845498,
0.20170682467481704,0.027871631325155907,0.17864440993815456,0.02009112534375848,0.052141403742228115,0.021474180000895415,0.006675793021290452,0.032442090341626734,
0.20250094603180457,0.027752951631436696,0.17771488020500853,0.02002959720161728,0.052080613335827884,0.021462378596301977,0.006649493068929927,0.0325041128038267,
0.2032950673887921,0.02763481182744733,0.1767676980860965,0.019967464270713026,0.052019242477687896,0.021450550695121057,0.0066234219703383435,0.0325652553982195,
0.20408918874577964,0.02751725375311136,0.17580320119671758,0.019904780713083815,0.05195735636179361,0.021438720430975312,0.00659759809054807,0.03262553996019102,
0.20488331010276717,0.027400319020322556,0.17482173581691,0.019841600211933604,0.051895020867509425,0.021426912456055363,0.006572039791137866,0.03268498978686751,
0.2056774314597547,0.02728404899279029,0.17382365663708552,0.01977797594468561,0.05183230252824282,0.021415151930786084,0.0065467654210947185,0.03274362962521511,
0.20647155281674223,0.027168484766113603,0.17280932649851935,0.01971396055677473,0.05176926849936268,0.021403464512925983,0.006521793307625519,0.032801485658724115,
0.20726567417372976,0.027053667148095994,0.17177911612897068,0.019649606136182097,0.051705986525380825,0.021391876346099698,0.0064971417469228635,0.032858585492684625,
0.2080597955307173,0.026939636639312488,0.1707334038737111,0.019584964188714707,0.051642524906407285,0.021380414047764234,0.006472828994889244,0.03291495813806127,
0.20885391688770483,0.02682643341394014,0.16967257542223815,0.01952008561403235,0.05157895246389109,0.021369104696610113,0.006448873257823996,0.03297063399397633,
0.20964803824469236,0.026714097300862775,0.16859702353095282,0.01945502068242395,0.051515338505658946,0.02135797581939929,0.0064252926830773984,0.033025644828812074,
0.2104421596016799,0.026602667765060657,0.16750714774207937,0.019389819012334757,0.05145175279026597,0.021347055377242245,0.006402105349676381,0.03308002375994496,
0.21123628095866742,0.026492183889294998,0.16640335409910634,0.019324529548645577,0.05138826549067329,0.021336371751317595,0.006379329258926305,0.03313380523212537,
0.21203040231565495,0.02638268435609718,0.165286054859027,0.019259200541704852,0.05132494715726892,0.021325953728037812,0.0063569823249933505,0.033187024994518484,
0.21282452367264248,0.026274207430071857,0.1641556682016559,0.019193879527113895,0.051261868680248936,0.02131583048366569,0.006335082365472031,0.03323972007642309,
0.21361864502963002,0.026166790940522874,0.16301261793629743,0.01912861330626541,0.051199101251377506,0.021306031568386556,0.006313647091942506,0.03329192876168699,
0.21441276638661755,0.026060472264410578,0.161857333206042,0.019063447927634924,0.051136716325145576,0.021296586889842005,0.006292694100522266,0.03334369056183872,
0.21520688774360508,0.02595528830964861,0.16069024818996192,0.01899842866882446,0.0510747855793486,0.0212875266961317,0.006272240862416895,0.03339504618795696,
0.2160010091005926,0.025851275498747772,0.15951180180347804,0.018933600019357615,0.05101338087510541,0.021278881558290365,0.00625230471447461,0.03344603752130067,
0.21679513045757837,0.02574846975281445,0.15832243739716706,0.018869005664224576,0.05095257421634124,0.021270682352247806,0.006232902849749344,0.03349670758272396,
0.2175892518145659,0.025646906475910346,0.15712260245427467,0.018804688468175658,0.05089243770875907,0.02126296024028043,0.0062140523080771275,0.033547100500901636,
0.21838337317155343,0.025546620539780122,0.15591274828719784,0.018740690460761437,0.05083304351832459,0.02125574665196348,0.006195769966670595,0.033597261479392265,
0.21917749452854096,0.025447646268953,0.15469332973319752,0.018677052822117287,0.050774463829290836,0.021249073264633957,0.0061780725307364675,0.03364723676256735,
0.2199716158855285,0.025350017426224048,0.1534648048495982,0.01861381586948987,0.050716770801789886,0.0212429719833746,0.006160976524120869,0.03369707360043611,
0.22076573724251602,0.025253767198520367,0.15222763460872812,0.018551019044502775,0.05066003652902006,0.02123747492053031,0.006144498279987393,0.03374682021239716,
0.22155985859950356,0.02515892818315726,0.15098228259285001,0.018488700901158187,0.05060433299405763,0.021232614374768775,0.006128653931532824,0.03379652574994902,
0.2223539799564911,0.02506553237448885,0.14972921468932832,0.018426899094571132,0.050549732026323055,0.021228422809697958,0.006113459402745485,0.03384624025839308,
0.22314810131347862,0.02497361115095725,0.14846889878627492,0.018365650370432602,0.05049630525773287,0.021224932832053515,0.006098930399211142,0.03389601463756336,
0.22394222267046615,0.02488319526254407,0.1472018044689113,0.01830499055519746,0.05044412407856838,0.02122217716946996,0.006085082398971468,0.03394590060161889,
0.22473634402745368,0.024794314818627674,0.14592840271687985,0.018244954546992747,0.05039325959309387,0.021220188647849983,0.006071930643440091,0.03399595063793516,
0.22553046538444121,0.02470699927624898,0.14464916560273347,0.018185576307241685,0.050343782574956836,0.021219000168346873,0.006059490128381191,0.034046217965132325,
0.22632458674142875,0.024621277428788557,0.14336456599182726,0.018126888852998284,0.05029576342240438,0.021218644683975534,0.006047775594955723,0.03409675649027868,
0.22711870809841628,0.02453717739505721,0.14207507724383187,0.018068924249987326,0.0502492721133495,0.021219155175868355,0.006036801520840278,0.03414762076530875,
0.2279128294554038,0.024454726608801804,0.14078117291608153,0.01801171360634393,0.05020437816032206,0.02122056462919241,0.006026582111423638,0.03419886594269621,
0.22870695081239134,0.024373951808627923,0.1394833264689678,0.01795528706704686,0.05016115056533952,0.02122290600874522,0.0060171312910860895,0.034250547730422486,
0.22950107216937887,0.02429487902834044,0.13818201097358163,0.017899673809039177,0.05011965777473278,0.021226212234246804,0.006008462694566527,0.03430272234628283,
0.2302951935263664,0.024217533587702712,0.13687769882180287,0.01784490203702964,0.050079967633963204,0.021230516155346033,0.006000589658422422,0.034355446471571814,
0.23108931488335394,0.02414194008361497,0.13557086143903005,0.017790998979968005,0.050042147342466696,0.021235850526359994,0.0059935252125876875,0.034408777204191325,
0.23188343624034147,0.024068122381711958,0.1342619689997391,0.017737990888186964,0.0500062634085613,0.021242247980765294,0.005987282072033488,0.03446277201122421,
0.232677557597329,0.023996103608379664,0.13295149014605276,0.01768590303120321,0.04997238160445481,0.02124974100546078,0.005981872628537038,0.03451748868101738,
0.23347167895431653,0.023925906143190522,0.1316398917094974,0.01763475969616981,0.04994056692138894,0.02125836191482149,0.005977308942563398,0.034572985274818606,
0.23426580031130406,0.02385755161175634,0.13032763843611933,0.017584584186971768,0.04991088352495659,0.021268142824564056,0.005973602735265314,0.034629320078011304,
0.2350599216682916,0.02379106087899787,0.12901519271512515,0.017535398823956366,0.04988339471062905,0.021279115625444156,0.005970765380606083,0.03468655155099238,
0.23585404302527913,0.0237264540428296,0.12770301431120681,0.017487224944289594,0.049858162859529764,0.021291311956806818,0.005968807897610459,0.03474473827973805,
0.23664816438226666,0.023663750428258107,0.1263915601007054,0.0174400829029297,0.04983524939449121,0.021304763180010892,0.005967740942748492,0.03480393892610284,
0.2374422857392542,0.023602968581892047,0.1250812838117625,0.017393992074208546,0.049814714736431245,0.02131950035174918,0.005967574802457342,0.03486421217789719,
0.23823640709624172,0.023544126266861587,0.12377263576860217,0.017348970854011325,0.049796618261085356,0.021335554197286107,0.005968319385805893,0.03492561669878937,
0.23903052845322925,0.02348724045814491,0.12246606264008064,0.017305036662544782,0.04978101825613045,0.021352955083635005,0.005969984217307126,0.03498821107807699,
0.239824649810215,0.023432327338299096,0.12116200719263581,0.017262205947683937,0.04976797187873644,0.02137173299269746,0.005972578429883065,0.03505205378037373,
0.24061877116720254,0.023379402293592467,0.11986090804776212,0.017220494188887006,0.04975753511358059,0.021391917494387295,0.005976110757987134,0.0351172030952569,
0.24141289252419007,0.023328479910535483,0.11856319944413198,0.017179915901667973,0.049749762731360316,0.02141353771976212,0.005980589530888709,0.03518371708692117,
0.2422070138811776,0.02327957397280679,0.1172693110044785,0.017140484642615982,0.0497447082478388,0.02143662233418537,0.005986022666124612,0.035251653543883696,
0.24300113523816513,0.023232697458571087,0.11597966750734977,0.01710221301495059,0.04974242388345815,0.021461199510542116,0.005992417663122238,0.0353210699287858,
0.24379525659515267,0.02318786253818514,0.11469468866383847,0.017065112674601583,0.049742960523554064,0.02148729690253221,0.005999781596998958,0.03539202332833594,
0.2445893779521402,0.023145080572288333,0.1134147888993864,0.017029194336801976,0.049746367679205525,0.021514941618064054,0.006008121112542394,0.035464570403438464,
0.24538349930912773,0.023104362110273845,0.11214037714075724,0.016994467783182487,0.04975269344875262,0.021544160192772867,0.0060174424183760886,0.03553876733955232,
0.24617762066611526,0.023065716889136365,0.1108718566082668,0.01696094186935569,0.049761984480015405,0.02157497856368712,0.006027751281315076,0.03561466979732349,
0.2469717420231028,0.023029153832692363,0.10960962461335426,0.01692862453297775,0.049774285933245836,0.021607422043067096,0.006039053020915727,0.03569233286353435,
0.24776586338009032,0.022994681051168718,0.10835407236157367,0.016897522802275612,0.04978964144484428,0.021641515292439368,0.006051352504224213,0.035771811002412765,
0.24855998473707785,0.022962305841155446,0.10710558476107941,0.016867642805027196,0.04980809309187185,0.021677282296851216,0.006064654140727879,0.03585315800734323,
0.2493541060940654,0.022932034685918146,0.10586454023667496,0.016838989777982108,0.04982968135738881,0.02171474633936899,0.006078961877513708,0.035936426953021655,
0.2501482274510529,0.022903873256065736,0.10463131054948993,0.01681156807671016,0.04985444509664903,0.02175392997584421,0.0060942791946380125,0.03602167014809477,
0.25094234880804045,0.022877826410569006,0.10340626062234554,0.016785381185864978,0.04988242150417964,0.021794855009971404,0.006110609100711367,0.03610893908832452,
0.251736470165028,0.02285389819812539,0.1021897483708656,0.016760431729849642,0.0499136460817744,0.021837542468661545,0.006127954128702781,0.03619828441031707,
0.2525305915220155,0.02283209185886521,0.10098212454038424,0.016736721483871418,0.049948152607428874,0.021882012577754593,0.006146316331966983,0.036289755845855226,
0.25332471287900304,0.022812409826394753,0.09978373254869911,0.016714251385372293,0.04998597310524435,0.021928284738095053,0.006165697280498591,0.036383402176872436,
0.2541188342359906,0.022794853730171344,0.09859490833471368,0.016693021545822206,0.050027137816327054,0.02197637750199382,0.006186098057416884,0.036479271191105674,
0.2549129555929781,0.022779424398205586,0.09741598021300986,0.01667303126286145,0.05007167517070841,0.022026308550099793,0.006207519255684785,0.03657740963846359,
0.25570707694996564,0.022766121860085923,0.09624726873438744,0.01665427903277896,0.05011961176031136,0.02207809466870435,0.006229960975065558,0.03667786318814569,
0.25650119830695317,0.022754945350320514,0.09508908655240404,0.016636762563312837,0.05017097231298654,0.022131751727501574,0.0062534228193206354,0.03678067638654716,
0.2572953196639407,0.02274589331199143,0.09394173829594539,0.016620478786759527,0.05022577966764215,0.022187294657827063,0.006277903893651886,0.036885892615983344,
0.25808944102092823,0.022738963400716173,0.09280552044785235,0.01660542387337806,0.05028405475048956,0.0222447374313976,0.006303402802391536,0.03699355405426666,
0.25888356237791577,0.022734152488911457,0.09168072122962839,0.01659159324507553,0.0503458165524267,0.02230409303957395,0.006329917646942824,0.03710370163516794,
0.2596776837349033,0.02273145667035423,0.09056762049224731,0.016578981589360088,0.0504110821075798,0.022365373473168682,0.006357446023974382,0.03721637500979366,
0.26047180509189083,0.022730871265034796,0.08946648961307814,0.01656758287354758,0.0504798664730235,0.022428589702820377,0.006385985023871224,0.0373316125089088,
0.26126592644887836,0.02273239082429676,0.08837759139894048,0.016557390359208137,0.050552182709698405,0.022493751659955454,0.006415531229445107,0.037449451106234904,
0.2620600478058659,0.022736009136258766,0.08730117999530129,0.01654839661683872,0.05062804186454438,0.022560868218358378,0.006446080714906909,0.03756992638275146,
0.2628541691628534,0.02274171923151278,0.08623750080161992,0.01654059354074784,0.05070745295386663,0.022629947176370634,0.006477629045103529,0.03769307249202802,
0.2636482905198392,0.02274951338909358,0.08518679039284585,0.016533972364138724,0.05079042294795108,0.022700995239738404,0.006510171275021734,0.03781892212661316,
0.2644424118768267,0.022759383142714282,0.08414927644706971,0.01652852367437703,0.05087695675694455,0.022774018005128353,0.006543701949561192,0.03794750648550601,
0.26523653323381424,0.022771319287262587,0.08312517767932529,0.01652423742842948,0.050967057218014075,0.022849019944330622,0.006578215103578841,0.03807885524273438,
0.2660306545908018,0.022785311885552342,0.08211470378153735,0.016521102968459718,0.05106072508379913,0.022926004389167576,0.0066137042622066156,0.038212996517063384,
0.2668247759477893,0.022801350275325115,0.081118055368606,0.016519109037567828,0.05115795901216921,0.023004973517126298,0.006650162441444357,0.03834995684285639,
0.26761889730477684,0.022819423076496273,0.08013542393061636,0.016518243795659998,0.05125875555729859,0.02308592833773226,0.0066875821490296585,0.03848976114211031,
0.26841301866176437,0.02283951819864013,0.07916699179115773,0.016518494835434976,0.051363109162068925,0.023168868679681157,0.006725955385586208,0.038632432697685216,
0.2692071400187519,0.02286162284870868,0.07821293207173423,0.01651984919847395,0.05147101215180955,0.023253793178745184,0.006765273646052065,0.038777993127748156,
0.27000126137573943,0.0228857235389784,0.0772734086622455,0.016522293391420854,0.05158245472938413,0.023340699266469637,0.006805527921389152,0.03892646236144924,
0.27079538273272696,0.02291180609521949,0.07634857619751263,0.01652581340224001,0.05169742497163158,0.023429583159674944,0.0068467087005750875,0.03907785861584756,
0.2715895040897145,0.022939855665081846,0.0754385800398218,0.016530394716538346,0.0518159088271679,0.02352043985077881,0.006888805972878311,0.039232198374103404,
0.272383625446702,0.022969856726692158,0.07454355626745429,0.016536022333939474,0.05193789011555515,0.023613263098952307,0.006931809230417351,0.03938949636495237,
0.27317774680368956,0.023001793097456164,0.07366363166916909,0.0165426807844972,0.0520633505278425,0.023708045422123177,0.006975707471004842,0.03954976554347563,
0.2739718681606771,0.023035647943060483,0.0727989237446008,0.01655035414513621,0.05219226962848309,0.023804778089838982,0.00702048920127684,0.03971301707318027,
0.2747659895176646,0.023071403786667884,0.07194954071053225,0.016559026056107897,0.052324624858629855,0.023903451117002154,0.007066142440107733,0.03987926030940204,
0.27556011087465215,0.023109042518300163,0.07111558151299827,0.01656867973744954,0.052460391540812286,0.024004053258488124,0.007112654722310937,0.04004850278404219,
0.2763542322316397,0.023148545404402487,0.07029713584517405,0.016579298005435235,0.05259954288499543,0.024106572004657306,0.007160013102625395,0.040220750191649016,
0.2771483535886272,0.02318989309758331,0.06949428417099854,0.01659086328900735,0.05274204999602127,0.024210993577770724,0.0072082041599877125,0.04039600637685394,
0.27794247494561475,0.02323306564652353,0.06870709775447992,0.016603357646177437,0.05288788188243195,0.0243173029293186,0.007257214002089638,0.040574273323170984,
0.2787365963026023,0.023278042506048736,0.06793563869462713,0.01661676278038586,0.05303700546667304,0.024425483738270495,0.007307028270220401,0.040755551143167645,
0.2795307176595898,0.0233248025473582,0.06717995996594846,0.016631060056809817,0.05318938559667444,0.02453551841025488,0.007357632144393275,0.04093983807001406,
0.28032483901657734,0.02337332406840433,0.06644010546445539,0.01664623051860952,0.0533449850588057,0.024647388077675213,0.00740901034875559,0.04112713045041672,
0.2811189603735649,0.023423584804416305,0.06571611005910667,0.016662254903102774,0.053503764592201485,0.024761072600769134,0.00746114715728121,0.04131742273894187,
0.2819130817305524,0.023475561938561325,0.06500799964862476,0.016679113657858465,0.05366568290445194,0.024876550569616414,0.0075140263997443635,0.041510707493732986,
0.28270720308753994,0.023529232112737226,0.0643157912236135,0.01669678695669978,0.05383069668865227,0.024993799307100852,0.007567631467973553,0.041706975373625776,
0.28350132444452747,0.02358457143848982,0.06363949293390332,0.016715254715608367,0.05399876064180489,0.025112794872830444,0.0076219453223840975,0.04190621513666361,
0.284295445801515,0.023641555508048452,0.06297910416104736,0.016734496608520888,0.05416982748456654,0.025233512068019638,0.007676950498787675,0.042108413640014865,
0.28508956715850253,0.02370015940547343,0.06233461559588873,0.01675449208300983,0.054343847982332376,0.025355924441336528,0.007732629115477126,0.042313555841293295,
0.28588368851549006,0.02376035771790864,0.0617060093211172,0.016775220375840644,0.054520770967647854,0.025480004295717482,0.007788962880584586,0.042521624801281424,
0.2866778098724776,0.023822124546933054,0.061093258898730254,0.016796660528397667,0.05470054336393899,0.025605722696150652,0.0078459330997109,0.04273260168805616,
0.28747193122946335,0.02388543352000441,0.06049632946231077,0.0168187914019716,0.05488311021055052,0.02573304947842949,0.007903520683824041,0.042946465782515056,
0.2882660525864509,0.02395025780198873,0.059915177814031356,0.016841591692901572,0.05506841468908108,0.025861953258876372,0.007961706157424177,0.04316319448530071,
0.2890601739434384,0.024016570106769226,0.059349752526292585,0.016865039947565094,0.055256398151003756,0.025992401445036048,0.008020469666972774,0.0433827633251201,
0.28985429530042595,0.024084342708928085,0.05879999404789981,0.016889114577209614,0.05544700014655995,0.02612436024733777,0.008079790989583065,0.0436051459684548,
0.2906484166574135,0.024153547455494886,0.05826583481468134,0.016913793872619494,0.05564015845491352,0.02625779469172433,0.008139649541968918,0.043830314230657204,
0.291442538014401,0.024224155777755357,0.057747199364447874,0.016939056018612616,0.05583580911555197,0.02639266863324556,0.008200024389649124,0.044058238088426994,
0.29223665937138854,0.024296138703114104,0.05724400445619128,0.01696487910836104,0.05603388646092102,0.02652894477061317,0.008260894256403807,0.044288885693661524,
0.2930307807283761,0.024369466867005193,0.056756159193418164,0.016991241157530534,0.056234323150277904,0.026666584661712976,0.00832223753397955,0.04452222338867264,
0.2938249020853636,0.02444411052484453,0.05628356515151204,0.01701812011823382,0.0564370502047487,0.02680554874007013,0.008384032292039663,0.04475821572276215,
0.29461902344235114,0.024520039564017937,0.05582611650901538,0.01704549389279288,0.05664199704357424,0.026945796332261858,0.00844625628835582,0.04499682547014678,
0.29541314479933867,0.024597223515899047,0.05538370018272116,0.01707334034730587,0.05684909152152869,0.02708728567627185,0.008508886979237096,0.045238013649223016,
0.2962072661563262,0.024675631567891244,0.05495619596646154,0.017101637325014348,0.057058259967494494,0.027229973940779396,0.00857190153019233,0.04548173954316148,
0.29700138751331373,0.024755232575488062,0.054543476673479335,0.017130362659466897,0.05726942722417679,0.02737381724537595,0.008635276826821484,0.0457279607218194,
0.29779550887030126,0.02483599507434646,0.05414540828226639,0.017159494187475467,0.057482516688940305,0.027518770681700704,0.008698989485931483,0.04597663306495919,
0.2985896302272888,0.024917887292367633,0.053761850085751045,0.01718900976186097,0.057697450355750655,0.027664788335486298,0.00876301586687192,0.046227710786760245,
0.2993837515842763,0.02500087716178011,0.053392654843715144,0.017218887263984916,0.05791414885820233,0.027811823309504952,0.008827332083085745,0.04648114646161052,
0.30017787294126386,0.025084932331220115,0.05303766893831936,0.0172491046160642,0.0581325315136144,0.02795982774740446,0.008891914013869852,0.046736891051163236,
0.3009719942982514,0.02517002017780431,0.052696732532614615,0.017279639793266223,0.058352516368174887,0.028108752858422802,0.008956737316340386,0.04699489393264397,
0.3017661156552389,0.025256107819190268,0.05236967973191501,0.017310470835581952,0.05857402024311408,0.028258548942969364,0.009021777437597269,0.047255102928391926,
0.30256023701222645,0.025343162125620024,0.052056338747907195,0.017341575859474597,0.058796958781886864,0.028409165419060075,0.009087009627082348,0.047517464336618895,
0.303354358369214,0.025431149731942576,0.051756532065368975,0.01737293306930197,0.059021246498342915,0.028560550849592876,0.009152408949125258,0.04778192296336843,
0.3041484797262015,0.025520037049610925,0.05147007661136903,0.01740452076851069,0.05924679682586373,0.028712652970449285,0.00921795029567099,0.048048422155656904,
0.30494260108318905,0.025609790278649885,0.05119678392681828,0.017436317370600748,0.0594735221674442,0.02886541871940696,0.009283608399182866,0.048316903835777435,
0.3057367224401766,0.02570037541959086,0.050936460340242344,0.017468301409859072,0.05970133394669605,0.029018794265847563,0.009349357845714472,0.04858730853674668,
0.3065308437971641,0.02579175828537015,0.05068890714364347,0.017500451551860967,0.059930142659749955,0.029172725041243165,0.009415173088143856,0.04885957543887391,
0.30732496515415164,0.025883904513187412,0.050453920770319106,0.01753274660373855,0.0601598579280321,0.029327155770403904,0.009481028459563041,0.049133642407430456,
0.3081190865111392,0.025976779576321316,0.050231292974503586,0.017565165524215512,0.06039038855189017,0.02948203050346869,0.0095468981868158,0.049409446031397304,
0.3089132078681267,0.026070348795899607,0.05002081101269806,0.017597687433407703,0.06062164256504353,0.029637292648620018,0.009612756404176274,0.049686921663267235,
0.30970732922511424,0.026164577352620965,0.04982225782655367,0.01763029162238931,0.060853527289830976,0.02979288500550317,0.009678577167160913,0.049966003459877374,
0.3105014505821,0.026259430298426346,0.04963541222717149,0.01766295756252442,0.06108594939322894,0.02994874979932937,0.009744334466465979,0.05024662442424692,
0.3112955719390875,0.026354872568117797,0.049460049080683126,0.017695664914564174,0.06131881494361213,0.030104828715641584,0.00981000224202265,0.050528716448393886,
0.31208969329607505,0.026450868990922832,0.04929593949497427,0.01772839353750969,0.06155202946822771,0.030261062935721016,0.009875554397161515,0.050812210357104225,
0.3128838146530626,0.02654738430200282,0.04914285100741347,0.0177611234972413,0.06178549801135361,0.030417393172611544,0.009940964812878126,0.051097035952625026,
0.3136779360100501,0.026644383153904,0.04900054777344841,0.017793835074914558,0.06201912519311019,0.03057375970773863,0.010006207362190959,0.0513831220602534,
0.31447205736703765,0.026741830127950075,0.04886879075593089,0.01782650877512389,0.062252815268894056,0.03073010242809843,0.010071255924583083,0.05167039657479095,
0.3152661787240252,0.026839689745575598,0.048747337915032316,0.01785912533383468,0.06248647218940177,0.030886360863992247,0.010136084400518507,0.05195878650783358,
0.3160603000810127,0.02693792647959951,0.04863594439861082,0.017891665726084843,0.0627199996612103,0.031042474227280906,0.010200666726024108,0.0522482180358648,
0.31685442143800024,0.027036504765438504,0.048534362732891675,0.01792411117345704,0.0629533012078802,0.031198381450132717,0.010264976887327772,0.05253861654912036,
0.3176485427949878,0.027135389012260203,0.04844234301332234,0.017956443151322693,0.06318628023154724,0.03135402122423822,0.010328988935543248,0.05282990670119073,
0.3184426641519753,0.02723454361407636,0.048359633095463934,0.01798864339585918,0.0634188400749667,0.031509332040464244,0.010392677001392098,0.053122012459327565,
0.31923678550896284,0.027333932960776346,0.04828597878578134,0.018020693910841632,0.06365088408397418,0.03166425222891925,0.010456015309952955,0.053414857155418737,
0.32003090686595037,0.027433521449101772,0.048221124032194404,0.01805257697421082,0.06388231567032573,0.03181871999940135,0.010518978195428125,0.0537083635375964,
0.3208250282229379,0.0275332734935631,0.048164811114253366,0.018084275144418804,0.0641130383748796,0.03197267348220011,0.010581540115917486,0.05400245382244108,
0.32161914957992543,0.027633153537299268,0.048116780832802346,0.018115771266553785,0.06434295593108132,0.03212605076922241,0.01064367566818946,0.05429704974774453,
0.32241327093691297,0.02773312606288175,0.04807677269899523,0.018147048478246035,0.06457197232871265,0.03227878995541232,0.010705359602438784,0.05459207262579315,
0.3232073922939005,0.027833155603064357,0.04804452512252956,0.018178090215356477,0.06479999187786456,0.03243082918043478,0.01076656683702071,0.05488744339713288,
0.32400151365088803,0.02793320675148072,0.04801977559896468,0.018208880217449843,0.06502691927309387,0.03258210667059201,0.010827272473151087,0.05518308268477598,
0.32479563500787556,0.028033244173291,0.048002260895991786,0.018239402533054085,0.06525265965772212,0.0327325607809416,0.01088745180956181,0.05547891084880928,
0.3255897563648631,0.028133232615779904,0.04799171723852461,0.01826964152470798,0.06547711868823511,0.03288213003758466,0.010947080357100958,0.05577484804136282,
0.3263838777218506,0.028233136918907994,0.04798788049248081,0.01829958187379871,0.0657002025987408,0.03303075318009241,0.011006133853266957,0.05607081426189734,
0.32717799907883816,0.02833292202581835,0.04799048634712578,0.018329208585191287,0.06592181826544247,0.03317836920403885,0.011064588276666005,0.05636672941276843,
0.3279721204358257,0.028432552993300955,0.047999270495851995,0.01835850699165173,0.06614187327108413,0.033324917403607386,0.01112241986138201,0.056662513355024355,
0.3287662417928132,0.02853199500221695,0.04801396881526902,0.018387462758065885,0.06636027596932413,0.033470337414238785,0.011179605111248242,0.05695808596439478,
0.32956036314980075,0.028631213367885114,0.04803431754248067,0.018416061885455796,0.06657693554899288,0.033614569255287614,0.01123612081400984,0.0572533671874264,
0.3303544845067883,0.028730173550433016,0.04806005345042846,0.018444290714795565,0.06679176209818996,0.03375755337265427,0.011291944055366465,0.057548277097721624,
0.3311486058637758,0.028828841165115037,0.0480909140211821,0.018472135930628526,0.06700466666817549,0.033899230681359596,0.011347052232884267,0.057842735952235665,
0.33194272722076335,0.028927181992599714,0.04812663761706026,0.018499584564487727,0.06721556133701101,0.03403954260802883,0.011401423069766397,0.05813666424758792,
0.3327368485777509,0.02902516198922878,0.048166963649466994,0.01852662399812153,0.06742435927290402,0.034178431133251676,0.011455034628471326,0.05842998277634244,
0.3335309699347384,0.029122747297250066,0.048211632745331974,0.0185532419665264,0.06763097479721047,0.03431583883378536,0.0115078653241683,0.058722612683212716,
0.33432509129172416,0.02921990425502665,0.04826038691104502,0.018579426560788714,0.06783532344704925,0.03445170892456713,0.011559893938019235,0.059014475521146,
0.3351192126487117,0.02931659940722425,0.04831296969377831,0.018605166230737574,0.06803732203748278,0.03458598530050308,0.011611099630276444,0.0593054933072418,
0.3359133340056992,0.029412799514979045,0.048369126340092286,0.018630449787410578,0.0682368887232175,0.0347186125779999,0.011661461953185678,0.05959558857845982,
0.33670745536268676,0.029508471566047804,0.04842860395172436,0.018655266405334492,0.06843394305977779,0.034849536136206276,0.01171096086368397,0.05988468444707218,
0.3375015767196743,0.02960358278494207,0.04849115163846227,0.018679605624622845,0.06862840606410714,0.03497870215793096,0.011759576735881901,0.060172704655815465,
0.3382956980766618,0.02969810064304829,0.04855652066800739,0.018703457352892396,0.06882020027454991,0.035106057670204284,0.011807290373319918,0.06045957363269764,
0.33908981943364935,0.02979199286873515,0.048624464612736354,0.018726811867000478,0.06900924981016769,0.035231550584450294,0.011854083020988507,0.060745216545415516,
0.3398839407906369,0.02988522745744959,0.04869473949327283,0.01874965981460528,0.06919548042934322,0.03535512973623645,0.01189993637710206,0.06102955935533863,
0.3406780621476244,0.029977772681802597,0.04876710391878458,0.01877199221555102,0.06937881958762596,0.03547674492456841,0.011944832604616524,0.061312528871015584,
0.34147218350461195,0.03006959710164543,0.048841319223924484,0.018793800463080063,0.0695591964947728,0.03559634695069711,0.011988754342480862,0.06159405280115919,
0.3422663048615995,0.030160669574137232,0.04891714960233765,0.01881507632487413,0.06973654217093796,0.035713887656405915,0.012031684716612624,0.06187405980706723,
0.343060426218587,0.0302509592638042,0.04899436223666038,0.018835811943926525,0.06991078950196601,0.0358293199617455,0.012073607350588059,0.06215247955443584,
0.34385454757557454,0.030340435652590616,0.049072727424940385,0.018855999839247455,0.07008187329374227,0.035942597902184674,0.01211450637603732,0.06242924276452333,
0.3446486689325621,0.030429068549901447,0.04915201870341135,0.018875632906404583,0.07024973032555465,0.036053676665145334,0.012154366442735563,0.06270428126462227,
0.3454427902895496,0.030516828102636128,0.049232012965558666,0.018894704417900744,0.07041429940242228,0.036162512625890195,0.012193172728380849,0.06297752803779838,
0.34623691164653714,0.030603684805212812,0.049312490577416886,0.018913208023391057,0.07057552140634528,0.03626906338273238,0.012230910948049976,0.0632489172718551,
0.34703103300352467,0.030689609509581994,0.049393235489043286,0.01893113774974139,0.0707333393464313,0.03637328779153582,0.012267567363323607,0.06351838440748322,
0.3478251543605122,0.030774573435228325,0.04947403534211574,0.018948488000930224,0.07088769840785343,0.03647514599947634,0.012303128791072196,0.06378586618555543,
0.34861927571749973,0.030858548179158864,0.04955468157360695,0.018965253557796085,0.07103854599959548,0.03657459947803324,0.012337582611894505,0.06405130069352585,
0.34941339707448726,0.03094150572587572,0.049634969515491074,0.018981429577632495,0.07118583180094097,0.03667161105518187,0.01237091677820074,0.06431462741089573,
0.3502075184314748,0.03102341845733093,0.04971469849044259,0.018997011593632485,0.07132950780666134,0.03676614494675787,0.012403119821932476,0.06457578725370619,
0.3510016397884623,0.031104259162860855,0.049793671903491696,0.019011995514184796,0.07146952837086007,0.03685816678696431,0.012434180861911871,0.06483472261802015,
0.35179576114544986,0.03118400104909715,0.049871697329603906,0.019026377622023655,0.07160585024942948,0.036947643657993585,0.01246408961081297,0.06509137742235555,
0.3525898825024374,0.031262617749851104,0.04994858659715577,0.019040154573234207,0.07173843264107754,0.03703454411873608,0.012492836381748014,0.06534569714903302,
0.3533840038594249,0.03134008333596779,0.050024155867282975,0.01905332339611548,0.0718672372268821,0.03711883823254853,0.012520412094462165,0.0655976288844013,
0.35417812521641245,0.03141637232514606,0.05009822570908074,0.0190658814899029,0.07199222820833064,0.037200497594055165,0.01254680828113021,0.06584712135790466,
0.3549722465734,0.03149145969172041,0.050170621170640826,0.01907782662335225,0.07211337234380441,0.03727949535495569,0.0125720170917491,0.06609412497995693,
0.3557663679303875,0.03156532087639998,0.05024117184591327,0.019089156933186906,0.07223063898346506,0.03735580624881442,0.012596031299120541,0.06633859187858779,
0.35656048928737505,0.031637931795960174,0.050309711937384864,0.01909987092241027,0.07234400010250429,0.03742940661480578,0.012618844303418227,0.06658047593482706,
0.3573546106443608,0.03170926885288161,0.05037608031457063,0.019109967458485137,0.07245343033271609,0.03750027442039199,0.012640450136334509,0.06681973281679436,
0.35814873200134834,0.0317793089449314,0.050440120568318224,0.0191194457713818,0.07255890699235286,0.037568389282909405,0.012660843464801777,0.06705632001246115,
0.35894285335833587,0.031848029474680864,0.05050168106092923,0.01912830545149673,0.07266041011422697,0.03763373249004079,0.01268001959428406,0.06729019686105392,
0.3597369747153234,0.03191540835895407,0.0505606149721049,0.019136546447443382,0.07275792247202015,0.03769628701915153,0.01269797447163477,0.06752132458306775,
0.36053109607231093,0.031981424038201096,0.05061678034072819,0.01914416906371698,0.0728514296047643,0.037756037555468684,0.012714704687516948,0.06774966630886024,
0.36132521742929846,0.032046055485789766,0.05067004010249701,0.019151173958234704,0.07294091983945782,0.03781297050908236,0.012730207478382596,0.06797518710579702,
0.362119338786286,0.032109282217209274,0.0507202621234277,0.019157562139753056,0.07302638431178295,0.03786707403075033,0.012744480728008186,0.06819785400392091,
0.3629134601432735,0.032171084299179045,0.050767319229251116,0.019163334965163894,0.07310781698489079,0.03791833802648693,0.0127575229685838,0.06841763602011801,
0.36370758150026106,0.03223144235865596,0.05081108923072728,0.019168494136670704,0.07318521466622141,0.03796675417091866,0.012769333381353791,0.06863450418075473,
0.3645017028572486,0.03229033759173288,0.050851454944908,0.01917304169884665,0.07325857702232824,0.03801231591939007,0.01277991179680723,0.06884843154276121,
0.3652958242142361,0.0323477517724212,0.05088830421238016,0.01917698003557587,0.07332790659167701,0.038055018518803885,0.012789258694416874,0.06905939321313807,
0.36608994557122365,0.03240366726131025,0.05092152991052557,0.019180311866879567,0.07339320879539109,0.03809485901718084,0.012797375201925832,0.06926736636686393,
0.3668840669282112,0.032458067014095954,0.05095102996283686,0.019183040245628388,0.0734544919459161,0.038131836271925845,0.012804263094181525,0.06947233026318325,
0.3676781882851987,0.032510934589971285,0.050976707344331025,0.01918516855414248,0.0735117672535793,0.03816595095678764,0.012809924791516982,0.06967426626025518,
0.36847230964218625,0.032562254159870754,0.050998470083106255,0.01918670050068089,0.0735650488310194,0.038197205567501245,0.01281436335768003,0.06987315782814545,
0.3692664309991738,0.03261201051456135,0.0510162312580897,0.019187640115821678,0.073614353695466,0.03822560442610256,0.012817582497311353,0.07006899056014529,
0.3700605523561613,0.03266018907257194,0.05102990899302695,0.01918799174873443,0.07365970176884859,0.03825115368390678,0.01281958655297283,0.07026175218240266,
0.37085467371314884,0.03270677588795373,0.05103942644676663,0.019187760063346597,0.07370111587571744,0.03827386132314297,0.01282038050172808,0.07045143256185321,
0.3716487950701364,0.03275175765786356,0.05104471179989573,0.019186950034405237,0.0737386217389604,0.0382937371572386,0.012819969951277509,0.07063802371243957,
0.3724429164271239,0.03279512172996245,0.05104569823778397,0.019185566943435792,0.07377224797330241,0.038310792829749064,0.0128183611356508,0.07082151979960974,
0.37323703778411144,0.03283685610962139,0.0510423239300977,0.0191836163745995,0.07380202607657578,0.03832504181192887,0.012815560910460013,0.07100191714308735,
0.37403115914109897,0.03287694946692649,0.05103453200684585,0.019181104210451067,0.0738279904187524,0.0383364993989421,0.012811576747717017,0.07117921421790784,
0.3748252804980865,0.03291539114347566,0.05102227053102249,0.019178036627598302,0.0738501782287304,0.038345182704711225,0.012806416730219497,0.0713534116537173,
0.37561940185507403,0.03295217115895884,0.05100549246791284,0.019174420092265384,0.07386862957887107,0.03835111065540478,0.012800089545510141,0.07152451223233149,
0.37641352321206156,0.03298728021751414,0.050984155651130826,0.019170261355761407,0.07388338736728356,0.038354303981565814,0.012792604479414089,0.07169252088355553,
0.3772076445690491,0.03302070971385167,0.05095822274545872,0.019165567449856025,0.07389449729785719,0.03835478520888418,0.012783971409160221,0.07185744467926572,
0.3780017659260366,0.03305245173913739,0.050927661206560136,0.019160345682063838,0.07390200785804449,0.038352578647617146,0.012774200796092164,0.07201929282575743,
0.37879588728302416,0.033082499086629004,0.050892443237640236,0.019154603630839276,0.07390597029439966,0.03834771038066421,0.012763303677975528,0.07217807665436475,
0.3795900086400117,0.03311084525705629,0.05085254574312749,0.019148349140683796,0.07390643858587956,0.03834020825030338,0.012751291660908153,0.07233380961035958,
0.3803841299969992,0.03313748446373816,0.05080795027945332,0.019141590317167178,0.07390346941491804,0.03833010184359761,0.012738176910840638,0.07248650724013933,
0.381178251353985,0.03316241163742843,0.05075864300300702,0.019134335521864665,0.07389712213628559,0.03831742247648107,0.012723972144714874,0.0726361871767151,
0.3819723727109725,0.03318562243088318,0.05070461461534434,0.0191265933672118,0.07388745874374968,0.03830220317653688,0.012708690621228605,0.07278286912351324,
0.38276649406796004,0.03320711322314183,0.05064586030572946,0.019118372711278843,0.07387454383455301,0.03828447866447881,0.012692346131234484,0.07292657483650601,
0.38356061542494757,0.03322688112351486,0.05058237969109108,0.019109682652466632,0.07385844457173031,0.03826428533435073,0.012674952987782453,0.07306732810468758,
0.3843547367819351,0.03324492397527074,0.05051417675347402,0.019100532524125937,0.07383923064428538,0.03824166123245948,0.012656526015814625,0.07320515472891474,
0.38514885813892263,0.03326124035901511,0.050441259775069226,0.019090931889102176,0.07381697422525413,0.03821664603505731,0.01263708054152211,0.07334008249913257,
0.38594297949591017,0.033275829595755195,0.05036364127090485,0.019080890534207706,0.07379174992768014,0.03818928102479215,0.01261663238137364,0.07347214117000737,
0.3867371008528977,0.03328869174964279,0.050281337919282645,0.019070418464623717,0.07376363475853308,0.0381596090659446,0.012595197830826022,0.0736013624349906,
0.38753122220988523,0.033299827630389224,0.05019437049004411,0.019059525898233926,0.07373270807060102,0.03812767457847191,0.012572793652726877,0.07372777989883941,
0.38832534356687276,0.03330923879534584,0.05010276377075152,0.019048223259892416,0.07369905151239187,0.03809352351088032,0.012549437065420194,0.07385142904862005,
0.3891194649238603,0.03331692755124396,0.05000654649086895,0.01903652117562786,0.07366274897607952,0.03805720331194829,0.012525145730565668,0.07397234722322293,
0.3899135862808478,0.033322896955588314,0.04990575124402965,0.01902443046678661,0.07362388654353356,0.03801876290132427,0.01249993774068282,0.07409057358141896,
0.39070770763783536,0.033327150817698215,0.04980041440847547,0.019011962144117163,0.07358255243047307,0.03797825263902355,0.012473831606431264,0.07420614906848795,
0.3915018289948229,0.03332969369939101,0.04969057606575491,0.018999127401798408,0.07353883692878739,0.03793572429384984,0.012446846243638607,0.07431911638145171,
0.3922959503518104,0.03333053091530245,0.049576279917766176,0.01898593761141444,0.07349283234706845,0.03789123101076814,0.012419000960087577,0.07442951993294555,
0.39309007170879795,0.03332966853283906,0.04945757320223175,0.01897240431587858,0.07344463294940114,0.03784482727725627,0.012390315442074277,0.07453740581376303,
0.3938841930657855,0.03332711337175763,0.04933450660669076,0.018958539223309208,0.07339433489246038,0.03779656888866331,0.012360809740749433,0.07464282175411002,
0.394678314422773,0.03332287300336734,0.04920713418109564,0.0189443542008604,0.0733420361609653,0.037746512912604266,0.01233050425825475,0.07474581708360566,
0.39547243577976054,0.033316955749350105,0.04907551324909895,0.018929861268509967,0.07328783650154234,0.037694717652420565,0.012299419733666571,0.07484644269006806,
0.3962665571367481,0.033309370680195315,0.048939704318116534,0.018915072592807954,0.07323183735505116,0.037641242609737384,0.012267577228759059,0.07494475097712432,
0.3970606784937356,0.03330012761324493,0.04879977098825213,0.01890000048058846,0.07317414178742833,0.03758614844614874,0.012234998113599242,0.07504079582068504,
0.39785479985072314,0.03328923711034551,0.04865577986016889,0.01888465737264785,0.07311485441910588,0.037529496944062574,0.012201704051986296,0.07513463252432473,
0.39864892120771067,0.03327671047510382,0.04850780044199198,0.01886905583739232,0.07305408135306274,0.0374713509667381,0.012167716986747469,0.07522631777360982,
0.3994430425646982,0.03326255974974304,0.04835590505532666,0.018853208564458046,0.07299193010156868,0.03741177441754886,0.0121330591249031,0.07531590958941738,
0.40023716392168573,0.033246797711556975,0.04820016874047505,0.018837128358307045,0.07292850951168169,0.037350832198504685,0.012097752922713166,0.07540346728028778,
0.40103128527867327,0.03322943786895951,0.04804066916093433,0.018820828131802015,0.0728639296895609,0.03728859016806696,0.012061821070617849,0.07548905139385508,
0.4018254066356608,0.03321049445712746,0.04787748650725824,0.018804320899763527,0.07279830192365848,0.037225115098291364,0.012025286478084506,0.07557272366739987,
0.40261952799264833,0.03318998243323437,0.047710703400363104,0.018787619772512767,0.0727317386068546,0.03716047463133335,0.0119881722583735,0.0756545469775698,
0.40341364934963586,0.03316791747127412,0.0475404047943587,0.018770737949403364,0.07266435315760149,0.03709473723535133,0.011950501713235251,0.07573458528931261,
0.4042077707066216,0.033144315956472464,0.047366677878983326,0.018753688712345756,0.07259625994014206,0.037027972159843194,0.011912298317550802,0.07581290360406838,
0.40500189206360915,0.033119194979285595,0.047189611981721606,0.018736485419327507,0.07252757418387108,0.03696024939045197,0.011873585703928187,0.07588956790726656,
0.4057960134205967,0.03309257232898482,0.04700929846968201,0.018719141497933158,0.07245841190190627,0.036891639603276814,0.0118343876472668,0.07596464511517473,
0.4065901347775842,0.03306446648682655,0.046825830651310886,0.018701670438866995,0.07238888980893823,0.03682221411872546,0.011794728049301841,0.07603820302114514,
0.40738425613457174,0.03303489661880759,0.0466393036780178,0.018684085789482427,0.07231912523842846,0.036752044854944765,0.011754630923140892,0.07611031024130628,
0.4081783774915593,0.033003882568005405,0.04644981444578663,0.01866640114732131,0.0722492360592249,0.036681204280865735,0.01171412037780444,0.07618103615974582,
0.4089724988485468,0.03297144484650379,0.04625746149684507,0.018648630153666818,0.07217934059166571,0.03660976536889987,0.011673220602782239,0.07625045087323216,
0.40976662020553434,0.03293760462690434,0.04606234492146447,0.01863078648711329,0.07210955752324157,0.03653780154732343,0.011631955852617115,0.07631862513552128,
0.41056074156252187,0.032902383733424634,0.04586456625996054,0.01861288385715651,0.07204000582388739,0.036465386652386425,0.011590350431527858,0.0763856303012958,
0.4113548629195094,0.03286580463258418,0.0456642284049639,0.0185949359978077,0.07197080466097491,0.03639259488018286,0.01154842867808252,0.07645153826978292,
0.41214898427649693,0.0328278904234798,0.045461435504028556,0.018576956661234687,0.0719020733140773,0.03631950073831914,0.011506214949933454,0.07651642142809763,
0.41294310563348446,0.032788664827652005,0.045256292862645056,0.018558959611433393,0.07183393108957693,0.03624617899741693,0.011463733608625225,0.07658035259435801,
0.413737226990472,0.03274815217854456,0.045048906847723356,0.018540958617932868,0.07176649723518819,0.03617270464248717,0.011421009004486341,0.07664340496061851,
0.4145313483474595,0.03270637741055978,0.0448393847916095,0.01852296744953709,0.07169989085446588,0.03609915282421129,0.0113780654616156,0.07670565203566718,
0.41532546970444706,0.03266336604771236,0.0446278348966987,0.01850499986810647,0.07163423082137096,0.03602559881016586,0.011334927262973665,0.07676716758773279,
0.4161195910614346,0.03261914419188474,0.04441436614070581,0.018487069622382116,0.0715696356949642,0.03595211793602638,0.011291618635590313,0.07682802558714724,
0.4169137124184221,0.03257373851068779,0.04419908818265328,0.018469190441855736,0.07150622363429829,0.03587878555678614,0.011248163735897562,0.0768883001490077,
0.41770783377540965,0.032527176224930586,0.04398211126963482,0.018451376030687968,0.0714441123135783,0.035805676998025095,0.011204586635198745,0.07694806547588404,
0.4185019551323972,0.03247948509570373,0.04376354614441173,0.018433640061677928,0.07138341883766057,0.03573286750726396,0.011160911305283325,0.07700739580061479,
0.4192960764893847,0.03243069341108083,0.04354350395389767,0.018415996170286525,0.0713242596579585,0.035660432205438214,0.011117161604197047,0.07706636532923636,
0.42009019784637225,0.03238082997244356,0.04332209615858568,0.018398457948716116,0.0712667504888244,0.035588446038525894,0.011073361262176838,0.07712504818408801,
0.4208843192033598,0.032329924080435675,0.04309943444297048,0.018381038940049003,0.07121100622447513,0.03551698372936324,0.011029533867759563,0.077183518347136,
0.4216784405603473,0.032278005520552135,0.04287563062701703,0.018363752632447106,0.07115714085652836,0.03544611972968127,0.01098570285407364,0.0772418496035587,
0.42247256191733484,0.03222510454836972,0.04265079657872547,0.018346612453415106,0.07110526739221673,0.03537592817239607,0.010941891485322127,0.07730011548563454,
0.4232666832743224,0.032171251874426154,0.04242504412784064,0.018329631764129235,0.07105549777334473,0.03530648282418524,0.010898122843465806,0.07735838921697377,
0.4240608046313099,0.03211647864875505,0.04219848498075344,0.01831282385383386,0.07100794279605353,0.035237857038381996,0.010854419815114433,0.07741674365713501,
0.42485492598829744,0.03206081644508466,0.04197123063663924,0.01829620193430784,0.07096271203145763,0.03517012370821817,0.010810805078634085,0.07747525124666621,
0.42564904734528497,0.032004297244708456,0.041743392304877704,0.018279779134402697,0.07091991374721605,0.03510335522044653,0.010767301091478347,0.07753398395260984,
0.4264431687022725,0.0319469534200363,0.041515080823796416,0.018263568494654513,0.07087965483009993,0.035037623409372526,0.01072393007775073,0.07759301321451091,
0.42723729005926003,0.03188881771783549,0.041286406580779825,0.018247582961971376,0.07084204070961693,0.0349729995113245,0.010680714016005533,0.07765240989096542,
0.4280314114162458,0.03182992324217091,0.04105747943378319,0.0182318353843982,0.07080717528275257,0.03490955411959119,0.010637674627294029,0.07771224420674737,
0.4288255327732333,0.03177030343705453,0.040828408634290055,0.01821633850596063,0.07077516083988657,0.034847357139854505,0.010594833363462649,0.07777258570055062,
0.42961965413022085,0.031709992068814544,0.040599302751750006,0.018201104961589817,0.07074609799194143,0.03478647774614472,0.010552211395709447,0.0778335031733826,
0.4304137754872084,0.0316490232081949,0.04037026959953251,0.018186147272129645,0.07072008559881916,0.03472698433734489,0.01050982960340502,0.07789506463764526,
0.4312078968441959,0.03158743121219644,0.04014141616243078,0.018171477839428074,0.07069722069918086,0.03466894449427025,0.010467708563183659,0.07795733726693828,
0.43200201820118345,0.031525250705671214,0.03991284852574871,0.01815710894151416,0.07067759844162183,0.034612424937347945,0.010425868538310257,0.07802038734661898,
0.432796139558171,0.031462516562681696,0.03968467180600159,0.01814305272786225,0.07066131201729471,0.034557491484921515,0.010384329468328266,0.07808428022515292,
0.4335902609151585,0.03139926388763733,0.03945699008326115,0.01812932121474491,0.07064845259403071,0.03450420901220391,0.01034311095899363,0.07814908026628802,
0.43438438227214604,0.031335527996220754,0.03922990633517281,0.01811592628067591,0.07063910925200818,0.03445264141090217,0.010302232272499448,0.07821485080208519,
0.4351785036291336,0.03127134439611658,0.03900352237267239,0.018102879661944748,0.07063336892101614,0.034402851549536054,0.010261712317995766,0.07828165408683754,
0.4359726249861211,0.03120674876755568,0.03877793877742779,0.01809019294824394,0.07063131631935866,0.03435490123447237,0.010221569642408687,0.0783495512519096,
0.43676674634310864,0.031141776943688495,0.03855325484102968,0.018077877578390314,0.07063303389444515,0.034308851171696,0.010181822421562653,0.07841860226152736,
0.43756086770009617,0.031076464890800518,0.038329568505953905,0.018065944836141518,0.07063860176510925,0.034264760929337834,0.010142488451609576,0.07848886586954953,
0.4383549890570837,0.031010848688384062,0.0381069763083166,0.018054405846108814,0.07064809766569866,0.03422268890097925,0.0101035851407681,0.07856039957724904,
0.43914911041407123,0.03094496450908004,0.037885573322441995,0.01804327156976726,0.07066159689197606,0.034182692269752034,0.01006512950137619,0.07863325959213496,
0.43994323177105876,0.030878848598503927,0.03766545310726084,0.018032552801564107,0.0706791722488693,0.034144826973252086,0.010027138142259811,0.07870750078784251,
0.4407373531280463,0.030812537254970063,0.03744670765455654,0.018022260165126425,0.07070089400010873,0.03410914766928451,0.009989627261420428,0.0787831766651199,
0.4415314744850338,0.030746066809128697,0.0372294273390741,0.018012404109568697,0.07072682981978688,0.03407570770245702,0.009952612639043592,0.07886033931393889,
0.44232559584202136,0.03067947360353025,0.03701370087050572,0.018002994905901164,0.0707570447458753,0.034044559071637906,0.009916109630830831,0.07893903937675607,
0.4431197171990089,0.030612793972131073,0.03679961524736545,0.01799404264353961,0.07079160113573062,0.03401575239829438,0.00988013316165672,0.07901932601295086,
0.4439138385559964,0.03054606421975556,0.036587255712763604,0.017985557226917113,0.0708305586236213,0.03398933689572633,0.009844697719552846,0.07910124686446567,
0.44470795991298395,0.030479320601529053,0.03637670571209039,0.017977548372198397,0.07087397408030413,0.033965360339210014,0.009809817350020138,0.07918484802267338,
0.4455020812699715,0.030412599302296204,0.036168046852616466,0.017970025604097124,0.07092190157467869,0.0339438690370655,0.009775505650670832,0.0792701739964963,
0.446296202626959,0.03034593641603939,0.03596135886501688,0.017962998252796587,0.07097439233754592,0.03392490780266126,0.009741775766201203,0.0793572676818002,
0.44709032398394655,0.030279367925311877,0.03575671956682319,0.017956475450974133,0.07103149472749494,0.03390851992736853,0.009708640383695908,0.07944617033208626,
0.4478844453409341,0.030212929680700242,0.0355542048278072,0.017950466130929457,0.07109325419894169,0.03389474715447763,0.009676111728264623,0.07953692153050357,
0.4486785666979216,0.03014665738033069,0.03535388853729794,0.017944979021817086,0.07115971327234027,0.03388362965408791,0.00964420155901146,0.0796295591632033,
0.44947268805490914,0.030080586549433554,0.03515584257343259,0.017940022646983026,0.07123091150658661,0.03387520599898235,0.00961292116533753,0.07972411939405584,
0.4502668094118967,0.03001475251998059,0.034960136774339824,0.017935605321405635,0.07130688547363241,0.033869513141497394,0.009582281363576738,0.07982063664075055,
0.4510609307688842,0.029949190410409283,0.0347668389112534,0.017931735149240798,0.07138766873532551,0.033866586391398126,0.009552292493964791,0.07991914355229784,
0.45185505212586996,0.029883935105448525,0.03457601466355173,0.017928420021471124,0.07147329182249078,0.033866459394768164,0.009522964417941137,0.0800196709879521,
0.4526491734828575,0.029819021236059715,0.03438772759571789,0.01792566761365925,0.07156378221626473,0.033869164113923274,0.009494306515783469,0.0801222479975726,
0.453443294839845,0.02975448315950747,0.03420203913621338,0.017923485383804942,0.07165916433169453,0.033874730808357276,0.009466327684574142,0.08022690180344008,
0.45423741619683256,0.029690354939573952,0.034019008558257235,0.01792188057030583,0.07175945950361022,0.03388318801672806,0.009439036336497796,0.08033365778354395,
0.4550315375538201,0.029626670326930567,0.03383869296250078,0.017920860190021547,0.0718646859747784,0.03389456253989123,0.009412440397469173,0.0804425394563562,
0.4558256589108076,0.02956346273968105,0.03366114726158689,0.01792043103644084,0.07197485888634209,0.03390887942498812,0.009386547306090074,0.0805535684671051,
0.45661978026779515,0.029500765244089608,0.0334864241665816,0.017920599677951485,0.07208999027055114,0.03392616195059461,0.009361364012934161,0.08066676457556235,
0.4574139016247827,0.02943861053550774,0.03331457417526398,0.0179213724562126,0.07221008904578517,0.033946431612936506,0.009336896980158185,0.08078214564535538,
0.4582080229817702,0.02937703091951336,0.03314564556225952,0.017922755484628988,0.07233516101386907,0.03396970811317665,0.009313152181438019,0.08089972763481568,
0.45900214433875774,0.029316058293275663,0.032979684371000566,0.017924754646927193,0.07246520885967965,0.03399600934577848,0.009290135102227804,0.0810195245893732,
0.4597962656957453,0.029255724127159006,0.0328167344074964,0.017927375595832722,0.07260023215304015,0.034025351387950306,0.009267850740340235,0.08114154863550518,
0.4605903870527328,0.02919605944657915,0.03265683723589385,0.017930623751848146,0.07274022735289776,0.03405774849017371,0.009246303606845984,0.08126580997624754,
0.46138450840972034,0.029137094814125034,0.0325000321758089,0.017934504302131563,0.07288518781377683,0.03409321306781931,0.009225497727290007,0.08139231688827493,
0.46217862976670787,0.02907886031195893,0.03234635630140771,0.017939022199474942,0.07303510379449962,0.03413175569385231,0.009205436643222363,0.08152107572055492,
0.4629727511236954,0.029021385524508055,0.03219584444221506,0.017944182161381873,0.07318996246916447,0.03417338509262983,0.009186123414041023,0.08165209089458043,
0.46376687248068293,0.0289646995214602,0.03204852918562689,0.01794998866924421,0.07334974794036885,0.034218108134791536,0.009167560619143986,0.08178536490618377,
0.46456099383767047,0.028908830841076195,0.03190444088110236,0.017956445967617134,0.07351444125466457,0.03426592983324435,0.009149750360387874,0.08192089832893366,
0.465355115194658,0.028853807473831455,0.03176360764601003,0.017963558063591976,0.07368402042022949,0.03431685334024161,0.009132694264850034,0.0820586898191157,
0.46614923655164553,0.028799656846399076,0.0316260553731018,0.01797132872626632,0.07385846042673921,0.0343708799455566,0.009116393487891023,0.08219873612229557,
0.46694335790863306,0.02874640580598667,0.03149180773958722,0.017979761486310725,0.07403773326742054,0.03442800907574956,0.009100848716514152,0.08234103208146301,
0.4677374792656206,0.028694080605039,0.03136088621777992,0.017988859635631488,0.07422180796326697,0.03448823829452705,0.009086060173018681,0.0824855706467534,
0.4685316006226081,0.02864270688631848,0.031233310087286793,0.017998626227128757,0.07441065058939482,0.034551563304191714,0.009072027618943091,0.08263234288674182,
0.46932572197959566,0.028592309668375233,0.03110909644871015,0.018009064074549427,0.07460422430351762,0.03461797794818026,0.009058750359294715,0.08278133800130393,
0.4701198433365832,0.02854291333141847,0.030988260238831798,0.01802017575243417,0.0748024893765142,0.03468747421468672,0.009046227247061906,0.08293254333603609,
0.4709139646935707,0.02849454160360063,0.030870814247247417,0.018031963596157906,0.07500540322506526,0.034760042241367445,0.009034456688004712,0.08308594439822589,
0.47170808605055825,0.02844721754772582,0.030756769134418927,0.018044429702063106,0.07521292044633174,0.03483567032112402,0.00902343664572,0.08324152487436337,
0.4725022074075458,0.028400963548393804,0.03064613345111155,0.018057575927685244,0.07542499285464598,0.034914344908959616,0.009013164646976709,0.083399266649181,
0.4732963287645333,0.028355801299590717,0.030538913659182022,0.01807140389206982,0.07564156952018708,0.03499605062990376,0.009003637787316967,0.0835591498262102,
0.47409045012152085,0.028311751792737514,0.03043511415368333,0.01808591497618025,0.07586259680960897,0.035080770288000065,0.008994852736918541,0.08372115274984,
0.4748845714785066,0.028268835305206932,0.030334737286250975,0.01810111032339614,0.07608801842858967,0.03516848487635081,0.008986805746714024,0.08388525202886266,
0.47567869283549413,0.028227071389319718,0.03023778338973507,0.018116990840101262,0.07631777546626864,0.03525917358821198,0.008979492654762144,0.08405142256148947,
0.47647281419248166,0.028186478861830802,0.030144250804042094,0.018133557196360724,0.07655180644153761,0.035352813829131684,0.008972908892866291,0.08421963756181905,
0.4772669355494692,0.028147075793915708,0.030054135903149506,0.018150809826686674,0.07679004735114989,0.03544938123012471,0.008967049493435537,0.0843898685877389,
0.4780610569064567,0.028108879501667565,0.029967433123256133,0.018168748930892025,0.07703243171961136,0.035548849661875125,0.008961909096583127,0.08456208557024016,
0.47885517826344426,0.028071906537114766,0.029884134992030652,0.018187374475031604,0.07727889065081618,0.035651191249958726,0.008957481957457446,0.08473625684412456,
0.4796492996204318,0.028036172679769194,0.02980423215892007,0.018206686192430117,0.07752935288138865,0.03575637639107678,0.008953761953800316,0.0849123491800812,
0.4804434209774193,0.02800169292871468,0.029727713426479806,0.018226683584796195,0.07778374483569206,0.03586437377029187,0.00895074259372755,0.0850903278181101,
0.48123754233440685,0.027968481495245372,0.029654565782686618,0.01824736592342208,0.07804199068246434,0.035975150379256554,0.008948417023726491,0.08527015650226794,
0.4820316636913944,0.027936551796063327,0.02958477443419528,0.018268732250468073,0.07830401239303965,0.036088671535425075,0.008946778036865265,0.08545179751671157,
0.4828257850483819,0.027905916447044404,0.02951832284049972,0.018290781380331123,0.07856972980111411,0.036204900902238116,0.008945818081208345,0.0856352117230134,
0.48361990640536945,0.027876587257581367,0.029455192748958955,0.01831351190109675,0.07883906066401317,0.03632380051027018,0.00894552926843306,0.08582035859872196,
0.484414027762357,0.027848575225512838,0.029395364230648268,0.01833692217607348,0.07911192072541769,0.036445330779329106,0.008945903382641507,0.08600719627714044,
0.4852081491193445,0.027821890532646543,0.02933881571699552,0.01836101034540882,0.07938822377950443,0.03656945054149676,0.008946931889362356,0.08619568158829563,
0.48600227047633204,0.027796542540885094,0.029285524037162704,0.018385774327785955,0.07966788173645678,0.03669611706509957,0.008948605944736876,0.08638577010106784,
0.4867963918333196,0.027772539788962193,0.029235464456132478,0.018411211822200037,0.07995080468930088,0.03682528607959762,0.008950916404883493,0.08657741616645326,
0.4875905131903071,0.027749889989796935,0.029188610713459694,0.018437320309813005,0.08023690098202114,0.03695691180138018,0.008953853835435118,0.08677057296192824,
0.48838463454729464,0.027728600028473695,0.029144935062647627,0.018464097055885722,0.0805260772789094,0.03709094696045579,0.008957408521243427,0.08696519253688498,
0.48917875590428217,0.027708675960854703,0.029104408311108745,0.018491539111786245,0.0808182386351007,0.03722734282802456,0.008961570476244084,0.08716122585910778,
0.4899728772612697,0.02769012301283232,0.02906699986066998,0.01851964331707286,0.08111328856824933,0.037366049244919895,0.008966329453477017,0.08735862286225782,
0.49076699861825723,0.027672945580227527,0.029032677748582345,0.018548406301650503,0.08141112913129725,0.03750701465090676,0.008971674955255624,0.08755733249433402,
0.49156111997524476,0.02765714722934101,0.029001408688995037,0.018577824487999058,0.08171166098628735,0.037650186114823264,0.008977596243478816,0.08775730276707744,
0.4923552413322323,0.027642730698162817,0.028973158114854163,0.01860789409347208,0.08201478347917306,0.03779550936555187,0.008984082350079648,0.08795848080628561,
0.49314936268921983,0.027629697898246226,0.028947890220186456,0.018638611132664212,0.08232039471557621,0.03794292882380653,0.008991122087604256,0.08816081290300296,
0.49394348404620736,0.027618049917251232,0.028925568002728497,0.01866997141984575,0.08262839163744344,0.03809238763472152,0.008998704059914736,0.0883642445655522,
0.4947376054031949,0.027607787022162503,0.028906153306862283,0.018701970571462518,0.08293867010055178,0.03824382770122742,0.009006816673009496,0.0885687205723718,
0.4955317267601824,0.027598908663186306,0.028889606866818227,0.018734604008699356,0.08325112495281319,0.03839718971819935,0.009015448145954544,0.08877418502562359,
0.49632584811716995,0.027591413478330575,0.028875888350106935,0.01876786696010523,0.0835656501133272,0.03855241320736211,0.009024586521919028,0.08898058140553337,
0.4971199694741575,0.027585299298671935,0.028864956401141274,0.018801754464278186,0.08388213865213094,0.03870943655293654,0.009034219679308338,0.08918785262542768,
0.497914090831145,0.027580563154312916,0.02885676868501088,0.018836261372607972,0.08420048287059426,0.0388681970380111,0.009044335342987908,0.08939594108742797,
0.4987082121881308,0.027577201281031995,0.02885128193137133,0.018871382352074403,0.08452057438240786,0.03902863088162198,0.00905492109559082,0.08960478873876351,
0.4995023335451183,0.027575209127628997,0.028848451978410954,0.018907111888099303,0.08484230419511164,0.03919067327652483,0.009065964388902155,0.08981433712866324,
0.5002964549021058,0.027574581363967517,0.028848233816858467,0.01894344428744983,0.08516556279210988,0.039354258427640565,0.009077452555312969,0.09002452746578615,
0.5010905762590934,0.027575311889715876,0.028850581633995093,0.018980373681190994,0.08549024021511854,0.03951931959115736,0.009089372819336666,0.09023530067614874,
0.5018846976160809,0.02757739384378721,0.028855448857635437,0.019017894027685018,0.08581622614699123,0.039685789114270315,0.00910171230918051,0.09044659746150761,
0.5026788189730684,0.02758081961447907,0.028862788200041855,0.019055999115635228,0.08614340999486758,0.039853598475539855,0.009114458068364832,0.09065835835815429,
0.503472940330056,0.02758558085031214,0.02887255170173743,0.019094682567172075,0.08647168097358884,0.04002267832584954,0.009127597067382403,0.09087052379607855,
0.5042670616870435,0.02759166847156712,0.028884690775183523,0.019133937840978884,0.08680092818932471,0.040192958529943194,0.009141116215390517,0.09108303415845559,
0.505061183044031,0.027599072682518423,0.028899156248288232,0.019173758235454908,0.08713104072335365,0.04036436820852084,0.009155002371927956,0.09129582984141175,
0.5058553044010186,0.027607782984362384,0.028915898407712776,0.019214136891913106,0.08746190771593967,0.040536835780872416,0.009169242358649195,0.09150885131402252,
0.5066494257580061,0.02761778818883739,0.028934867041943396,0.01925506679781025,0.08779341845024703,0.04071028900802771,0.009183822971067962,0.09172203917849611,
0.5074435471149936,0.027629076432532432,0.028956011484097145,0.01929654079000675,0.08812546243623413,0.04088465503640023,0.009198730990302264,0.09193533423049484,
0.5082376684719812,0.02764163519188026,0.02897928065443031,0.01933855155805379,0.08845792949446682,0.04105986044190243,0.009213953194812862,0.09214867751954504,
0.5090317898289687,0.02765545129883025,0.029004623102519292,0.01938109164750521,0.08879070983979123,0.04123583127450872,0.009229476372127177,0.09236201040948656,
0.5098259111859562,0.027670510957195683,0.029031987049084124,0.019424153463251524,0.08912369416480519,0.041412493103242666,0.009245287330540506,0.09257527463891109,
0.5106200325429437,0.02768679975966929,0.029061320427425878,0.01946772927287372,0.08945677372306636,0.041589771061563606,0.009261372910786382,0.09278841238153848,
0.5114141538999313,0.027704302705500346,0.029092570924449588,0.019511811210014152,0.08978984041197563,0.04176758989312768,0.009277719997667836,0.09300136630647887,
0.5122082752569188,0.02772300421882601,0.029125686021245364,0.019556391277762288,0.0901227868552724,0.04194587399789764,0.00929431553164127,0.09321407963832772,
0.5130023966139063,0.02774288816764851,0.029160613033201065,0.019601461352052662,0.09045550648507866,0.042124547478575046,0.00931114652034464,0.09342649621704072,
0.5137965179708939,0.02776393788344947,0.029197299149620718,0.019647013185072715,0.09078789362342823,0.04230353418732801,0.009328200050061568,0.09363856055753382,
0.5145906393278814,0.0277861361814316,0.029235691472823896,0.019693038408678053,0.091119843563216,0.042482757772787066,0.009345463297112963,0.09385021790895343,
0.5153847606848689,0.02780946538137763,0.029275737056701594,0.019739528537812804,0.09145125264850297,0.04266214172728111,0.009362923539167763,0.09406141431356155,
0.5161788820418565,0.02783390732911513,0.0293173829447055,0.01978647497393264,0.09178201835411144,0.04284160943428479,0.009380568166464324,0.094272096665179,
0.516973003398844,0.02785944341857563,0.029360576207248114,0.01983386900842812,0.0921120393644439,0.04302108421604806,0.009398384692933932,0.09448221276713022,
0.5177671247558315,0.027886054614435413,0.029405263978492118,0.019881701826046132,0.0924412156514597,0.04320048938137837,0.009416360767217937,0.09469171138963184,
0.5185612461128191,0.027913721475324765,0.02945139349250823,0.01992996450830706,0.09276944855174267,0.04337974827354509,0.00943448418356997,0.09490054232656711,
0.5193553674698066,0.027942424177591827,0.029498912118781518,0.01997864803691536,0.09309664084259198,0.04355878431827547,0.009452742892634671,0.0951086564515878,
0.5201494888267941,0.027972142539606067,0.029547767397046978,0.020027743297161418,0.09342269681706908,0.04373752107181073,0.009471125012094348,0.09531600577348497,
0.5209436101837817,0.02800285604658614,0.029597907071436235,0.02007724108131238,0.0937475223579328,0.0439158822689905,0.009489618837174982,0.09552254349076922,
0.5217377315407674,0.028034543875935923,0.02964927912391785,0.020127132091989873,0.09407102501039448,0.04409379187133315,0.009508212851002914,0.09572822404540127,
0.522531852897755,0.028067184923071673,0.029701831807014554,0.020177406945532456,0.09439311405362495,0.04427117411507947,0.009526895734803654,0.09593300317561326,
0.5233259742547425,0.028100757827722957,0.02975551367578179,0.020228056175340767,0.09471370057094507,0.044447953559166316,0.009545656377934147,0.09613683796776099,
0.52412009561173,0.028135241000688833,0.029810273619032508,0.020279070235203256,0.0950326975186312,0.04462405513309648,0.009564483887739951,0.0963396869071473,
0.5249142169687175,0.028170612651030266,0.029866060889794224,0.020330439502600623,0.09535001979326765,0.04479940418467072,0.009583367599228641,0.09654150992775766,
0.5257083383257051,0.028206850813678946,0.02992282513498502,0.020382154281986982,0.09566558429757707,0.044973926527547385,0.009602297084550803,0.09674226846084782,
0.5265024596826926,0.028243933377442226,0.02998051642429623,0.020434204808045846,0.09597931000466123,0.04514754848859514,0.009621262162280021,0.09694192548232405,
0.5272965810396801,0.028281838113382828,0.030039085278270174,0.020486581248919233,0.09629111802058357,0.04532019695500328,0.009640252906483243,0.09714044555885738,
0.5280907023966677,0.0283205427035517,0.03009848269556229,0.020539273709407974,0.09660093164522632,0.04549179942111432,0.009659259655572973,0.09733779489267293,
0.5288848237536552,0.028360024770051347,0.03015866017937781,0.020592272234141663,0.09690867643135478,0.04566228403494319,0.009678273020932725,0.09753394136495573,
0.5296789451106427,0.028400261904406577,0.030219569763074005,0.02064556681071643,0.0972142802418218,0.04583157964434676,0.009697283895307253,0.09772885457781559,
0.5304730664676303,0.028441231697218794,0.030281164034919743,0.020699147372799067,0.09751767330484656,0.04599961584280788,0.009716283460949021,0.09792250589475314,
0.5312671878246178,0.028482911768079322,0.03034339616200528,0.02075300380319587,0.0978187882673025,0.04616632301479734,0.009735263197512549,0.09811486847957099,
0.5320613091816053,0.02852527979571665,0.030406219913295632,0.02080712593688467,0.09811756024594932,0.04633163238067729,0.009754214889688301,0.09830591733367351,
0.5328554305385929,0.028568313548352032,0.030469589681821962,0.020861503564008687,0.09841392687654633,0.0464954760411093,0.009773130634567782,0.09849562933170058,
0.5336495518955804,0.02861199091423692,0.030533460506006194,0.020916126432830626,0.09870782836078427,0.04665778702093037,0.009792002848731707,0.09868398325544063,
0.5344436732525679,0.02865628993234562,0.030597788090114816,0.020970984252645826,0.09899920751097445,0.04681849931246029,0.009810824275053084,0.09887095982596972,
0.5352377946095555,0.028701188823195594,0.030662528823838686,0.021026066696652985,0.09928800979243552,0.04697754791820352,0.009829587989207262,0.09905654173396412,
0.536031915966543,0.028746666019767556,0.030727639800996524,0.021081363404781294,0.09957418336351967,0.047134868892908716,0.00984828740588105,0.09924071366813517,
0.5368260373235305,0.028792700198496893,0.03079307883736041,0.021136863986472642,0.09985767911322146,0.047290399384949465,0.009866916284673202,0.09942346234173566,
0.537620158680518,0.0288392703103075,0.030858804487602504,0.02119255802341772,0.10013845069631404,0.04744407767698974,0.009885468735678669,0.09960477651708922,
0.5384142800375056,0.028886355611658622,0.030924776061362885,0.02124843507224501,0.10041645456595998,0.047595843225897605,0.009903939224749189,0.09978464702809427,
0.5392084013944931,0.028933935695575005,0.03099095363843927,0.02130448466716147,0.10069165000374523,0.04774563670187106,0.009922322578423032,0.09996306680065581,
0.5400025227514806,0.02898199052262992,0.031057298083099864,0.021360696322544084,0.10096399914708708,0.04789340002674031,0.00994061398851676,0.10014003087100037,
0.5407966441084682,0.029030500451850676,0.03112377105752176,0.02141705953548124,0.10123346701396899,0.04803907641141085,0.009958809016372265,0.10031553640183018,
0.5415907654654557,0.029079446271515506,0.03119033503435752,0.021473563788263164,0.10150002152495814,0.04818261039241235,0.009976903596752441,0.10048958269627462,
0.5423848868224432,0.02912880922981066,0.031256953308433824,0.021530198550820612,0.10176363352246323,0.04832394786751847,0.009994894041379185,0.10066217120959878,
0.5431790081794308,0.029178571065316027,0.03132359000758631,0.021586953283111283,0.10202427678719303,0.048463036130403696,0.010012777042107613,0.10083330555863039,
0.5439731295364183,0.029228714037287568,0.031390210102635686,0.021643817437453302,0.10228192805177923,0.04859982390430311,0.010030549673730734,0.10100299152886859,
0.5447672508934058,0.02927922095570426,0.03145677941651071,0.021700780460805338,0.10253656701152933,0.048734261374642596,0.010048209396409023,0.10117123707924025,
0.5455613722503916,0.029330075211047486,0.03152326463252458,0.021757831796993025,0.10278817633227878,0.0488663002206068,0.010065754057719742,0.10133805234447174,
0.5463554936073791,0.029381260803780354,0.03158963330181159,0.021814960888881494,0.10303674165531491,0.048995893645613575,0.010083181894321176,0.1015034496350461,
0.5471496149643666,0.029432762373494285,0.03165585384993195,0.021872157180493904,0.10328225159934784,0.04912299640666389,0.010100491533227254,0.10166744343471777,
0.5479437363213542,0.02948456522769023,0.03172189558265289,0.02192941011907605,0.10352469775950748,0.04924756484253757,0.010117681992688404,0.10183005039556052,
0.5487378576783417,0.029536655370161653,0.0317877286909152,0.021986709157107237,0.10376407470334902,0.049369556900805786,0.010134752682674893,0.10199128933052547,
0.5495319790353292,0.02958901952894669,0.03185332425499472,0.02204404375425772,0.10400037996385207,0.04948893216363238,0.01015170340495929,0.10215118120349054,
0.5503261003923168,0.029641645183816467,0.031918654247869035,0.02210140337929328,0.10423361402940427,0.049605651872337245,0.010168534352795057,0.10230974911678345,
0.5511202217493043,0.0296945205932671,0.031983691537800174,0.02215877751192739,0.10446378033076202,0.04971967895069633,0.010185246110188778,0.10246701829616511,
0.5519143431062918,0.029747634820982707,0.032048409890144916,0.02221615564462198,0.10469088522498526,0.04983097802695326,0.01020183965076389,0.10262301607326205,
0.5527084644632794,0.02980097776173687,0.03211278396840436,0.022273527284337524,0.10491493797634821,0.04993951545451978,0.010218316336214344,0.10277777186544085,
0.5535025858202669,0.029854540166700468,0.03217678933452568,0.022330881954233772,0.1051359507342305,0.05004525933134268,0.010234677914347038,0.10293131715311958,
0.5542967071772544,0.029908313668123684,0.03224040244846892,0.02238820919532219,0.10535393850799876,0.0501481795179169,0.010250926516712328,0.1030836854545154,
0.555090828534242,0.02996229080336053,0.03230360066705247,0.022445498568071702,0.10556891913889131,0.050248247653925576,0.01026706465582249,0.10323491229783052,
0.5558849498912295,0.030016465038204536,0.0323663622420914,0.022502739653969057,0.10578091326892426,0.05034543717348924,0.010283095221958496,0.10338503519088278,
0.556679071248217,0.030070830789504326,0.03242866631784316,0.022559922057035713,0.10598994430684064,0.05043972331900791,0.010299021479565958,0.10353409358819043,
0.5574731926052046,0.030125383447028593,0.032490492927775776,0.022617035405302837,0.10619603839112887,0.05053108315358152,0.01031484706324162,0.1036821288555243,
0.5582673139621921,0.03018011939455029,0.032551822990673836,0.022674069352246473,0.10639922435014065,0.05061949557199547,0.01033057597331235,0.10382918423194434,
0.5590614353191796,0.030235036030120156,0.032612638306098424,0.022731013578184852,0.10659953365934273,0.050704941310259946,0.010346212571009055,0.1039753047893413,
0.5598555566761672,0.03029013178550045,0.03267292154921701,0.02278785779163987,0.10679700039574078,0.05078740295369288,0.010361761573238468,0.10412053738950819,
0.5606496780331547,0.030345406144730126,0.032732656265020185,0.02284459173066496,0.10699166118951772,0.05086686494353864,0.010377228046956316,0.1042649306387692,
0.5614437993901422,0.030400859661793372,0.03279182686194197,0.02290120516414157,0.10718355517293242,0.05094331358211553,0.01039261740314586,0.10440853484019853,
0.5622379207471297,0.030456493977363986,0.03285041860490108,0.022957687893046506,0.10737272392652895,0.05101673703648718,0.0104079353904063,0.10455140194346445,
0.5630320421041173,0.030512311834598547,0.032908417607780543,0.02301402975169246,0.10755921142270976,0.05108712534065441,0.010423188088156114,0.10469358549233732,
0.5638261634611048,0.03056831709395211,0.032965810825363394,0.023070220608944158,0.10774306396673007,0.051154470396265854,0.01043838189945682,0.10483514056990456,
0.5646202848180923,0.0306245147469908,0.033022586044742445,0.023126250369412477,0.107924330135174,0.0512187659718471,0.010453523543463171,0.10497612374153818,
0.5654144061750799,0.030680910929176186,0.03307873187622215,0.023182108974629134,0.10810306071197652,0.05128000770054989,0.010468620047506344,0.10511659299566457,
0.5662085275320674,0.03073751293159715,0.03313423774373071,0.023237786404204267,0.10827930862205906,0.051338193076424135,0.010483678738817045,0.10525660768238937,
0.5670026488890549,0.030794329211625553,0.03318909387476091,0.02329327267696946,0.10845312886264935,0.05139332144921731,0.010498707235896068,0.1053962284500331,
0.5677967702460425,0.030851369402472913,0.03324329128985772,0.023348557852108688,0.1086245784323592,0.051445394017707376,0.010513713439540188,0.10553551717963712,
0.5685908916030282,0.03090864432162602,0.03329682179167149,0.023403632030279762,0.10879371625809664,0.05149441382157683,0.01052870552353174,0.10567453691750202,
0.5693850129600158,0.030966165978140017,0.03334967795359488,0.023458485354728754,0.10896060311989202,0.05154038573183684,0.010543691925000685,0.10581335180582338,
0.5701791343170033,0.03102394757876848,0.03340185310800235,0.023513108012400058,0.10912530157372015,0.051583316439812316,0.010558681334468363,0.10595202701149345,
0.5709732556739908,0.03108200353291083,0.03345334133411048,0.023567490235044498,0.10928787587240298,0.051623214444699826,0.010573682685582448,0.10609062865313935,
0.5717673770309784,0.03114034945635819,0.033504137445477616,0.02362162230032801,0.10944839188467947,0.05166009003971208,0.010588705144553096,0.10622922372647133,
0.5725614983879659,0.031199002173819813,0.03355423697716148,0.02367549453294346,0.1096069170125319,0.051693955296823545,0.010603758099300545,0.10636788002801677,
0.5733556197449534,0.03125797972021297,0.03360363617255283,0.02372909730572801,0.10976352010685927,0.05172482405013385,0.01061885114832482,0.10650666607731873,
0.574149741101941,0.03131730134070024,0.033652331969903554,0.023782421040788603,0.1099182713815908,0.051752711877866286,0.01063399408930855,0.10664565103767903,
0.5749438624589285,0.03137698748945909,0.033700321988567344,0.023835456210637814,0.11007124232633385,0.0517776360830206,0.010649196907464084,0.10678490463552831,
0.575737983815916,0.03143705982716971,0.033747604514970914,0.023888193339342598,0.11022250561765277,0.0517996156727001,0.01066446976363657,0.106924497078508,
0.5765321051729035,0.03149754121720774,0.033794178488333715,0.023940623003688304,0.11037213502907652,0.051818671336134645,0.010679822982174698,0.10706449897234994,
0.5773262265298911,0.031558455720530176,0.03384004348615373,0.023992735834360204,0.11052020533993341,0.051834825421422356,0.01069526703858133,0.10720498123664228,
0.5781203478868786,0.031619828589243074,0.033885199709476996,0.024044522517144833,0.11066679224311388,0.05184810191101407,0.01071081254695628,0.107346015019571,
0.5789144692438661,0.03168168625884156,0.033929647967968136,0.024095973794153513,0.11081197225186167,0.05185852639596583,0.010726470247243868,0.10748767161172827,
0.5797085906008537,0.031744056339112904,0.03397338966479906,0.024147080465070178,0.110955822605697,0.05186612604898591,0.010742250992298061,0.10763002235908052,
0.5805027119578412,0.031806967603695106,0.03401642678137281,0.02419783338842581,0.11109842117557402,0.05187092959630404,0.010758165734778178,0.10777313857519003,
0.5812968333148287,0.03187044997828443,0.034058761861899295,0.02424822348290163,0.11123984636837725,0.051872967288392025,0.010774225513888385,0.10791709145278494,
0.5820909546718163,0.03193453452748638,0.03410039799783931,0.02429824172866329,0.11138017703086164,0.05187227086956573,0.010790441441974356,0.10806195197477458,
