time,DELT1,DELT3,TRIlg,TRIlat,BIClg,BICsh,BRA,
0.0,0.048735007517246035,0.126985100913828,0.1294222087370986,0.03557560948583779,0.006027943594162679,0.0018716274481626997,0.010584768828595206,
0.000794121356989308,0.04872236946007916,0.12651128813694956,0.1282110128207691,0.03549372154787826,0.0060878540836014445,0.0018802336352381304,0.010673730262105776,
0.0015882427139750632,0.048708760027930384,0.1260299442174693,0.12700129404236482,0.03541975824266194,0.006149402908616916,0.0018893639279744384,0.01076514647175528,
0.002382364070964371,0.04869417553661098,0.12554121539529484,0.12579311020964767,0.035353703006032924,0.006212590455672156,0.0018990165928829687,0.010859026863640611,
0.0031764854279501265,0.04867861259123631,0.12504524861776958,0.12458652062812821,0.035295536219717136,0.006277416747505339,0.001909189793959486,0.010955380281240065,
0.003970606784939434,0.04866206808943815,0.12454219147384757,0.12338158613676221,0.03524523523332776,0.006343881439243556,0.0019198815935475564,0.011054214998073164,
0.00476472814192519,0.04864453922450072,0.12403219213043999,0.12217836914041261,0.03520277438788369,0.006411983814632246,0.0019310899531912993,0.01115553871050904,
0.005558849498914498,0.04862602348840981,0.12351539927093552,0.12097693363903356,0.035168125040817226,0.006481722782384649,0.00194281273447729,0.011259358530727839,
0.006352970855900253,0.048606518674803624,0.12299196203589079,0.1197773452535397,0.035141255592447344,0.006553096872655592,0.0019550476998654517,0.011365680979839709,
0.007147092212889561,0.04858602288181413,0.12246202996588548,0.11857967124832866,0.03512213151389441,0.006626104233643788,0.001967792513508835,0.01147451198116585,
0.007941213569875316,0.048564534514787525,0.12192575294653121,0.11738398055043167,0.035110715376412416,0.0067007426283268254,0.001981044742062224,0.011585856853686084,
0.008735334926864624,0.048542052288872276,0.12138328115562065,0.11619034376527257,0.03510696688211494,0.006777009431332841,0.001994801855479567,0.011699720305657467,
0.00952945628385038,0.04851857523146339,0.12083476501239934,0.11499883318902208,0.03511084289607062,0.006854901625952862,0.002009061227800276,0.011816106428408291,
0.010323577640839687,0.04849410268449128,0.12028035512893875,0.11380952281754042,0.03512229747974438,0.006934415801297663,0.002023820137924501,0.011935018690311936,
0.011117698997825443,0.048468634306543835,0.11972020226358657,0.11262248835190712,0.03514128192576059,0.0070155481496028795,0.0020390757703775235,0.012056459930944887,
0.01191182035481475,0.04844217007481027,0.1191544572764665,0.11143780720054375,0.03516774479396428,0.007098294463686019,0.0020548252160634615,0.012180432355433228,
0.012705941711800506,0.0484147102868357,0.11858327108699615,0.11025555847794066,0.03520163194875701,0.007182650134558935,0.0020710654730085555,0.012306937528991884,
0.013500063068789814,0.048386255562075445,0.11800679463338967,0.10907582300000579,0.03524288659768365,0.007268610149199152,0.002087793447094303,0.012435976371660874,
0.014294184425775569,0.04835680684323808,0.11742517883410729,0.10789868327605917,0.03529144933124663,0.007356169088483322,0.002105005952780812,0.01256754915324277,
0.015088305782764877,0.04832636539740703,0.11683857455121227,0.10672422349750321,0.03534725816392438,0.0074453211252860085,0.0021226997138207486,0.012701655488445518,
0.015882427139750632,0.048294932816930126,0.1162471325555928,0.10555252952320363,0.03541024857637076,0.007536060022746859,0.0021408713639643174,0.012838294332234702,
0.01667654849673994,0.04826251102006774,0.11565100349400334,0.1043836888616224,0.03548035355877226,0.007628379132709076,0.0021595174476557433,0.012977463975399272,
0.017470669853725695,0.048229102251389835,0.11505033785787813,0.10321779064974897,0.035557503655339856,0.007722271394331982,0.0021786344207217925,0.013119162040334788,
0.01826479121071145,0.048194709081913235,0.11444528595386656,0.10205492562888069,0.03564162700991272,0.007817729332880339,0.0021982186510528705,0.013263385477048114,
0.01905891256770076,0.0481593344089706,0.11383599787603857,0.10089518611730934,0.03573264941265059,0.00791474505869293,0.002218266419277304,0.013410130559387333,
0.019853033924686514,0.048122981455803404,0.11322262347970631,0.09973866597997426,0.035830494347792084,0.008013310266332799,0.0022387739194294257,0.013559392881500825,
0.020647155281675822,0.048085653770871616,0.11260531235680554,0.09858546059514756,0.03593508304245574,0.008113416233921346,0.0022597372596121464,0.013711167354529137,
0.021441276638661577,0.04804735522687321,0.11198421381277943,0.09743566681822079,0.03604633451646126,0.008215053822658424,0.0022811524626546948,0.013865448203533295,
0.022235397995650885,0.04800809001946781,0.1113594768449053,0.09628938294266635,0.03616416563314751,0.008318213476530301,0.002303015466766273,0.014022228964663154,
0.02302951935263664,0.04796786266569884,0.11073125012200388,0.09514670865825083,0.036288491151164545,0.008422885222207348,0.0023253221261863776,0.014181502482569162,
0.02382364070962595,0.04792667800210925,0.11009968196546872,0.09400774500658012,0.03641922377721607,0.008529058669133003,0.0023480682118325815,0.014343260908060863,
0.024617762066611704,0.04788454118254688,0.10946492033155306,0.09287259433406031,0.03655627421972926,0.008636723009805563,0.0023712494119465842,0.014507495696015347,
0.02541188342360101,0.04784145767565569,0.10882711279484937,0.09174136024236079,0.03669955124342827,0.008745867020254035,0.0023948613327393806,0.01467419760353874,
0.026206004780586767,0.047797433262050194,0.10818640653289717,0.09061414753646836,0.03684896172478781,0.008856479060709258,0.0024188994990364024,0.014843356688383587,
0.027000126137576075,0.04775247403117079,0.1075429483118527,0.08949106217042474,0.0370044107083431,0.008968547076471189,0.002443359354923514,0.015014962307624934,
0.02779424749456183,0.04770658637781843,0.10689688447315467,0.08837221119084111,0.037165801463831735,0.009082058598973246,0.0024682362643947712,0.015189003116597691,
0.028588368851551138,0.047659776998367626,0.10624836092111913,0.0872577026782857,0.037333035544143474,0.009197000747044298,0.0024935255120028563,0.015365467068097704,
0.029382490208536893,0.04761205288665767,0.10559752311139672,0.08614764568664252,0.03750601284405313,0.009313360228368777,0.002519222303513151,0.015544341411848827,
0.0301766115655262,0.04756342132956295,0.10494451604022534,0.0850421501805404,0.037684631659711705,0.009431123341145247,0.0025453217665623905,0.015725612694238025,
0.030970732922511957,0.04751388990224311,0.104289484234411,0.0839413269709535,0.03786878874887065,0.009550275975943531,0.0025718189513228547,0.015909266758320422,
0.031764854279501265,0.047463466463075574,0.10363257174197045,0.08284528764907508,0.03805837939181377,0.009670803617760352,0.0025987088311730942,0.016095288744096006,
0.03255897563648702,0.04741215914827257,0.10297392212336953,0.08175414451856788,0.03825329745297083,0.00979269134827336,0.0026259863033761804,0.01628366308905945,
0.03335309699347633,0.047359976366186364,0.10231367844329135,0.08066801052629523,0.038453435443186856,0.009915923848293077,0.0026536461897664794,0.016474373529024464,
0.03414721835046208,0.04730692679130669,0.1016519832628697,0.07958699919163695,0.03865868458262034,0.010040485400412335,0.002681683237445974,0.016667403099223623,
0.03494133970745139,0.04725301935795535,0.10098897863232331,0.07851122453449572,0.038868934864243504,0.010166359891852442,0.002710092119491145,0.016862734135684787,
0.035735461064437146,0.04719826325368304,0.10032480608392856,0.07744080100209856,0.039084075117917144,0.010293530817505305,0.002738867435671438,0.017060348276884667,
0.036529582421426454,0.0471426679123747,0.09965960662526765,0.0763758433946995,0.039303993075012374,0.010421981283170456,0.002768003713180369,0.017260226465680244,
0.03732370377841221,0.047086243007070504,0.0989935207326929,0.07531646679028825,0.03952857543355123,0.010551694008985866,0.002797495407380293,0.017462348951518228,
0.03811782513540152,0.04702899844250938,0.09832668834494698,0.07426278646841025,0.03975770792383716,0.010682651333051192,0.0028273369025618874,0.017666695292922783,
0.03891194649238727,0.04697094434740384,0.0976592488568826,0.07321491783320293,0.03999127537454657,0.010814835215242066,0.0028575225127194,0.017873244360261425,
0.03970606784937658,0.04691209106645423,0.09699134111322438,0.07217297633575231,0.04022916177925193,0.010948227241213804,0.0028880464823427005,0.018081974338788876,
0.040500189206362336,0.04685244915211225,0.09632310340232017,0.07113707739587379,0.04047125036334644,0.011082808626592833,0.002918902987227203,0.01829286273196849,
0.04129431056334809,0.04679202935610375,0.09565467344982827,0.07010733632341987,0.04071742365133956,0.011218560221353953,0.0029500861353026968,0.01850588636507059,
0.0420884319203374,0.04673084262072118,0.09498618841229156,0.06908386823921676,0.04096756353449296,0.01135546251438147,0.0029815899674821406,0.01872102138904704,
0.042882553277323154,0.04666890006989702,0.09431778487054913,0.06806678799573093,0.041221551338765115,0.011493495638212078,0.0030134084585314693,0.018938243284680977,
0.04367667463431246,0.04660621300006996,0.09364959882293927,0.06705621009756507,0.04147926789303306,0.011632639373957344,0.003045535517961434,0.0191575268670108,
0.04447079599129822,0.04654279287085611,0.0929817656782498,0.06605224862188183,0.04174059359755908,0.011772873156403414,0.003077964990942534,0.019378846290027004,
0.045264917348287526,0.046478651295537986,0.09231442024837326,0.06505501713885309,0.042005408492669365,0.011914176079285538,0.0031106906592440462,0.019602175051640525,
0.04605903870527328,0.0464138000313845,0.0916476967406274,0.06406462863222966,0.04227359232761143,0.012056526900734943,0.0031437062421981635,0.01982748599892113,
0.04685316006226259,0.04634825096981556,0.09098172874970252,0.06308119542012593,0.04254502462955675,0.012199904048895429,0.0031770053976902554,0.020054751333604133,
0.047647281419248344,0.04628201612642521,0.09031664924920048,0.06210482907611153,0.042819584772714143,0.01234428562770703,0.00321058172317625,0.020283942617863728,
0.04844140277623765,0.0462151076308774,0.0896525905827315,0.06113564035070076,0.04309715204751948,0.01248964942285402,0.003244428756728094,0.02051503078035103,
0.04923552413322341,0.046147537716689085,0.08898968445453792,0.06017373909332836,0.043377605729866146,0.012635972907874377,0.003278539978108279,0.020747986122494934,
0.050029645490212715,0.04607931871091561,0.08832806191961534,0.059219234174898494,0.043660825150341157,0.012783233250428062,0.0033129088098743666,0.02098277832506376,
0.05082376684719847,0.04601046302375314,0.08766785337330509,0.05827223341099172,0.04394668976343043,0.01293140731872103,0.0033475286185144695,0.021219376454985568,
0.05161788820418778,0.04594098313807334,0.08700918854033304,0.0573328434858128,0.04423507921665675,0.013080471688082145,0.003382392715614582,0.021457748972424997,
0.052412009561173534,0.0458708915989057,0.08635219646327273,0.05640116987696004,0.044525873419613546,0.013230402647690003,0.003417494359058697,0.021697863738114487,
0.05320613091816284,0.04580020100288289,0.0856970054904124,0.055477316781094084,0.04481895261285692,0.013381176207446693,0.0034528267542625886,0.02193968802093757,
0.0540002522751486,0.045728923987664864,0.08504374326300877,0.05456138704058292,0.045114197436618445,0.013532768104995568,0.0034883830554421308,0.022183188505762053,
0.054794373632137905,0.04565707322135718,0.08439253670191126,0.053653482071196565,0.04541148899930043,0.013685153812879975,0.0035241563669170138,0.022428331301520714,
0.05558849498912366,0.04558466139193914,0.08374351199354305,0.05275370179092292,0.04571070894571524,0.01383830854584007,0.0035601397444507046,0.022675081949537358,
0.05638261634611297,0.045511701196717415,0.08309679457522845,0.05186214454997392,0.04601173952503009,0.013992207268244669,0.003596326196627473,0.022923405432095912,
0.05717673770309872,0.04543820533182098,0.08245250911985623,0.050978907062049016,0.04631446365837792,0.014146824701655335,0.0036327086862672753,0.023173266181250273,
0.05797085906008803,0.0453641864817526,0.08181077951987258,0.05010408433691981,0.046618765006095374,0.014302135332519728,0.0036692801318792857,0.023424628087872726,
0.05876498041707379,0.04528965730901281,0.08117172887059793,0.049237769614397964,0.046924528034548156,0.014458113419991434,0.003706033409154814,0.02367745451093866,
0.059559101774063095,0.04521463044381147,0.08053547945286428,0.048380054299745366,0.04723163808250399,0.014614733003873465,0.0037429613525003427,0.023931708287045474,
0.06035322313104885,0.04513911847388249,0.07990215271497178,0.0475310279005835,0.047539981427013475,0.01477196791268271,0.00378005675661135,0.024187351740163506,
0.06114734448803816,0.04506313393441661,0.0792718692539648,0.046690777965356235,0.04784944534875848,0.014929791771832563,0.0038173123780875827,0.024444346691616763,
0.06194146584502391,0.044986689298127464,0.07864474879622968,0.04585939002339773,0.048159918196828175,0.015088178011931056,0.003854720937090385,0.024702654470291407,
0.06273558720201322,0.044909796965465355,0.07802091017741815,0.04503694752665462,0.048471289452882343,0.015247099877191852,0.0038922751190426535,0.024962235923070012,
0.06352970855899898,0.04483246925499358,0.0774004713217011,0.044223531793109144,0.048783449794661794,0.015406530433955509,0.003929967576371929,0.025223051425489394,
0.06432382991598473,0.044754718393941115,0.0767835492203598,0.04341922195194689,0.04909629115880562,0.015566442579318383,0.003967790930297113,0.025485060892620277,
0.06511795127297404,0.04467655650894566,0.0761702599097226,0.04262409489051111,0.049409706802935154,0.01572680904986666,0.004005737772659224,0.025748223790166766,
0.0659120726299598,0.044597995617000695,0.07556071844845681,0.041838225203082315,0.049723591366964484,0.015887602430513032,0.004043800667796562,0.026012499145783692,
0.0667061939869491,0.04451904761661932,0.07495503889422685,0.041061685141519616,0.05003784093359805,0.01604879516343353,0.0040819721544646075,0.02627784556061014,
0.06750031534393486,0.04443972427922788,0.07435333427973036,0.04029454456779749,0.05035235308797533,0.01621035955710206,0.0041202447478008945,0.026544221221017295,
0.06829443670092417,0.044360037240801696,0.07375571658812588,0.039536870908469426,0.05066702697642342,0.016372267795420246,0.004158610941335092,0.026811583910569075,
0.06908855805790992,0.0442799979937547,0.0731622967278667,0.03878872911108705,0.05098176336427822,0.016534491946940174,0.00419706320904441,0.027079891022193932,
0.06988267941489923,0.04419961787909451,0.07257318450695621,0.03805018160260114,0.05129646469273567,0.01669700397417771,0.004235594007454403,0.02734909957056626,
0.07067680077188498,0.04411890807885398,0.07198848860664174,0.03732128824976838,0.05161103513469464,0.016859775743013995,0.0042741957777852075,0.027619166204696063,
0.07147092212887429,0.04403787960880959,0.07140831655456445,0.03660210632158505,0.05192538064955366,0.017022779032182793,0.004312860948143137,0.027890047220725377,
0.07226504348586005,0.043956543311496725,0.07083277469738432,0.03589269045376653,0.05223940903692369,0.017185985542841304,0.004351581935757512,0.028161698574930307,
0.07305916484284936,0.04387490984953132,0.07026196817289973,0.03519309261528914,0.0525530299892204,0.017349366908222044,0.004390351149262523,0.028434075896927247,
0.07385328619983511,0.043792989699247,0.06969600088168298,0.03450336207700843,0.052866155143099385,0.017512894703363487,0.00442916099102385,0.02870713450308219,
0.07464740755682442,0.0437107931446561,0.06913497545825283,0.03382354538236569,0.05317869812969866,0.017676540454916952,0.004468003859509696,0.028980829410121933,
0.07544152891381017,0.04362833027174263,0.06857899324180708,0.03315368632019202,0.05349057462365328,0.017840275651027304,0.004506872151705815,0.029255115348946016,
0.07623565027079948,0.043545610963094915,0.06802815424653891,0.03249382589961728,0.05380170239084794,0.01800407175128491,0.0045457582655740415,0.029529946778638343,
0.07702977162778524,0.04346264489288456,0.06748255713156097,0.03184400232708886,0.054112001334873955,0.018167900196746273,0.004584654602553741,0.029805277900677322,
0.07782389298477455,0.043379441522198754,0.06694229917046335,0.031204250985503064,0.05442139354215789,0.018331732420020744,0.004623553570105546,0.03008106267334353,
0.0786180143417603,0.04329601009473164,0.06640747622053092,0.030574604415449635,0.05472980332572987,0.018495539855420552,0.004662447584296643,0.030357254826323687,
0.07941213569874961,0.043212359632840674,0.06587818269164765,0.02995509229856803,0.05503715726760071,0.018659293949171374,0.004701329072426819,0.030633807875509962,
0.08020625705573536,0.043128498933972935,0.06535451151491549,0.029345741443011972,0.05534338425971797,0.018822966169680648,0.004740190475694409,0.030910675137993403,
0.08100037841272467,0.043044436567466274,0.06483655411101714,0.02874657577101677,0.055648415543471795,0.018986528017860597,0.004779024251901193,0.031187809747250498,
0.08179449976971043,0.042960180871729654,0.06432440035835182,0.02815761630856188,0.05595218474772301,0.019149951037503027,0.004817822878195243,0.03146516466852158,
0.08258862112669973,0.04287573995180643,0.06381813856097499,0.02757888117711947,0.0562546279253266,0.01931320682570271,0.0048565788538506485,0.031742692714379926,
0.08338274248368549,0.042791121677324344,0.06331785541637296,0.027010385587477665,0.05655568358812512,0.019476267043326258,0.004895284703082948,0.0320203465604903,
0.0841768638406748,0.04270633368083509,0.06282363598310495,0.026452141835625626,0.05685529274038752,0.019639103425523097,0.004933932977899109,0.03229807876155553,
0.08497098519766055,0.04262138335654623,0.06233556364834461,0.02590415930068552,0.05715339891067052,0.019801687792275216,0.00497251626098073,0.03257584176744992,
0.08576510655464986,0.04253627785944779,0.061853720095355134,0.025366444444874882,0.057449948182080435,0.019963992058982208,0.00501102716859919,0.03285358793953783,
0.08655922791163562,0.04245102410483554,0.06137818527093143,0.0248390008154812,0.05774488922091481,0.020125988247078095,0.005049458353561304,0.03313126956717608,
0.08735334926862137,0.042365628768232654,0.060909037352844156,0.02432182904882893,0.058038173303664356,0.020287648494676257,0.005087802508184057,0.03340883888439844,
0.08814747062561068,0.04228009828571053,0.060446352717320496,0.023814926876217522,0.05832975434235697,0.020448945067238808,0.005126052367296917,0.0336862480867805,
0.08894159198259644,0.042194438854609946,0.059990205906597004,0.023318289131807477,0.05861958890822644,0.020609850368266572,0.005164200711270184,0.03396344934848325,
0.08973571333958574,0.04210865643466253,0.059540669596580435,0.02283190776242999,0.05890763625369007,0.02077033695000572,0.005202240369067744,0.034240394839473026,
0.0905298346965715,0.04202275674951287,0.05909781456465268,0.022355771839294148,0.059193858332620156,0.02093037752416712,0.00524016422132258,0.034517036742916,
0.0913239560535608,0.04193674528864066,0.058661709657656054,0.021889867571564525,0.059478219818895846,0.021089944972654345,0.005277965203433325,0.03479332727274466,
0.09211807741054656,0.041850627309682316,0.058232421760095555,0.021434178321780233,0.0597606881232228,0.021249012358296043,0.005315636308680111,0.03506921869139387,
0.09291219876753587,0.04176440784115043,0.0578100157625948,0.02098868462308559,0.06004123340820935,0.021407552935578507,0.005353170591357895,0.03534466332770385,
0.09370632012452162,0.041678091685550096,0.05739455453064252,0.02055336419824092,0.06031982860168873,0.021565540161374,0.005390561169925417,0.03561961359498697,
0.09450044148151093,0.04159168342288978,0.0569860988736665,0.020128191980381,0.060596449408278484,0.021722947705660457,0.005427801230167896,0.035894022009255476,
0.09529456283849669,0.0415051874145846,0.05658470751447164,0.01971314013548737,0.06087107431916877,0.021879749462227926,0.005464884028371501,0.03616784120760655,
0.096088684195486,0.04141860780774932,0.05619043705907893,0.01930817808653959,0.061143684620132754,0.022035919559367134,0.005501802894507633,0.0364410239667611,
0.09688280555247175,0.04133194853987805,0.05580334196700191,0.0189132725393094,0.061414264397752896,0.02219143237053539,0.005538551235424933,0.03671352322175238,
0.09767692690946106,0.0412452133439071,0.05542347452199735,0.01852838750976066,0.06168280054385819,0.02234626252499507,0.0055751225380469395,0.03698529208475997,
0.09847104826644681,0.04115840575365731,0.05505088480332614,0.018153484353017016,0.06194928275816826,0.022500384918419717,0.0056115103725732475,0.03725628386408487,
0.09926516962343612,0.04107152910965149,0.05468562065756052,0.01778852179385818,0.062213703549141366,0.02265377472346269,0.0056477083956819486,0.03752645208326041,
0.10005929098042188,0.04098458656530232,0.054327727670973255,0.017433455958704762,0.06247605823302389,0.022806407400283325,0.005683710353731122,0.037795750500294066,
0.10085341233741119,0.04089758109346572,0.0539772491425444,0.01708824040905086,0.06273634493110011,0.022958258707025277,0.005719510085957055,0.0380641331270344,
0.10164753369439694,0.04081051549335421,0.05363422605762012,0.01675282617630259,0.06299456456514169,0.02310930471024196,0.0057551015276668645,0.03833155424865703,
0.10244165505138625,0.04072339239780435,0.053298697062258704,0.016427161797980167,0.06325072085105726,0.023259521795263374,0.005790478713423109,0.03859796844326353,
0.103235776408372,0.040636214280891834,0.05297069843829743,0.01611119335524022,0.0635048202907433,0.023408886676499055,0.0058256357802179545,0.03886333060158617,
0.10402989776536131,0.04054898346588762,0.05265026407917399,0.015804864511674493,0.06375687216213786,0.023557376407671565,0.005860566970634373,0.039127595946791514,
0.10482401912234707,0.040461702133547675,0.05233742546653572,0.015508116553340341,0.06400688850748035,0.023704968391974755,0.00589526663599186,0.039390720054375265,
0.10561814047933638,0.04037437233072908,0.05203221164766874,0.015220888429977925,0.06425488411978021,0.023851640392151298,0.005929729239474087,0.03965265887214047,
0.10641226183632213,0.04028699597932403,0.05173464921377909,0.014943116797368414,0.06450087652749933,0.023997370540483568,0.0059639493592358785,0.03991336874025092,
0.10720638319331144,0.04019957488550348,0.05144476227915701,0.014674736060787083,0.06474488597745282,0.024142137348692107,0.005997921691486853,0.040172806411350986,
0.1080005045502972,0.040112110749261486,0.05116257246125499,0.014415678419504753,0.06498693541593367,0.024285919717735895,0.0060316410535490705,0.04043092907074295,
0.1087946259072865,0.04002460517425073,0.05088809886170938,0.014165873912290683,0.06522705046806834,0.02442869694750851,0.006065102386885942,0.04068769435661243,
0.10958874726427226,0.039937059677899255,0.05062135804833454,0.013925250463869611,0.06546525941541008,0.024570448746424396,0.006098300760099691,0.040943060380292384,
0.11038286862126157,0.03984947570179831,0.050362364038118085,0.013693733932285455,0.06570159317177789,0.0247111552408894,0.006131231371894624,0.04119698574655553,
0.11117698997824732,0.039761854622350476,0.050111128281244324,0.013471248157123882,0.06593608525735005,0.024850796984649693,0.006163889554003421,0.041449429573925195,
0.11197111133523308,0.03967419776166689,0.04986765964617305,0.01325771500854597,0.06616877177102135,0.024989354968013293,0.006196270774073699,0.041700351514993884,
0.11276523269222238,0.039586506398701954,0.04963196440579952,0.01305305443708487,0.06639969136103441,0.025126810626938407,0.0062283706385120345,0.04194971177673928,
0.11355935404920814,0.03949878178061342,0.049404046224720624,0.012857184524157527,0.06662888519389601,0.025263145851982798,0.006260184895282706,0.04219747114082663,
0.11435347540619745,0.03941102513433561,0.04918390614763139,0.012670021533243439,0.0668563969215903,0.025398342997108643,0.006291709436658353,0.04244359098388641,
0.1151475967631832,0.03932323767835293,0.048971542588875344,0.01249147996168247,0.06708227264710137,0.02553238488833708,0.00632294030191982,0.04268803329775639,
0.11594171812017251,0.039235420634660484,0.04876695132317083,0.012321472593043932,0.0673065608882586,0.025665254832246884,0.006353873680002429,0.042930760709676434,
0.11673583947715827,0.039147575240898375,0.04857012547753505,0.012159910550019309,0.06752931253991949,0.02579693662431184,0.006384505912085965,0.043171736502425014,
0.11752996083414757,0.03905970276264591,0.04838105552442623,0.012006703347791227,0.06775058083450537,0.025927414557071305,0.00641483349412569,0.04341092463438562,
0.11832408219113333,0.03897180450586176,0.04819972927612362,0.011861758947831548,0.06797042130090584,0.026056673428128715,0.006444853079321737,0.04364828975953169,
0.11911820354812264,0.03888388182945551,0.0480261318803639,0.01172498381208177,0.06818889172177,0.02618469854797277,0.0064745614805242786,0.04388379724731839,
0.11991232490510839,0.03879593615797633,0.04786024581725154,0.011596282957469372,0.06840605208920195,0.026311475747616428,0.006503955672571906,0.044117413202469674,
0.1207064462620977,0.03870796899440381,0.047702050897459915,0.011475560010714151,0.06862196455888053,0.026436991386048495,0.006533032794560718,0.044349104484648745,
0.12150056761908345,0.03861998193302618,0.047551524261738795,0.011362717263378973,0.06883669340262376,0.02656123235749346,0.006561790152041682,0.04457883872800045,
0.12229468897607276,0.03853197667239071,0.04740864038174297,0.011257655727119951,0.06905030495941906,0.02668418609847466,0.006590225219143885,0.04480658436055366,
0.12308881033305852,0.03844395502831114,0.0472733710621954,0.011160275189091521,0.06926286758494257,0.026805840594676607,0.006618335640621348,0.045032310623472065,
0.12388293169004783,0.03835591894691693,0.04714568544439785,0.011070474267462492,0.06947445159959093,0.02692618438760226,0.006646119233821167,0.045255987590141544,
0.12467705304703358,0.03826787051772887,0.04702555001110034,0.01098815046699974,0.06968512923505062,0.027045206581021237,0.006673573990570822,0.045477586185082665,
0.1254711744040229,0.03817981198674559,0.04691292859274019,0.010913200234676837,0.06989497457943115,0.027162896847205225,0.006700698078982545,0.04569707820267642,
0.12626529576100864,0.038091745769525405,0.04680778237506014,0.010845519015265556,0.07010406352098861,0.027279245432947075,0.006727489845172752,0.04591443632569169,
0.12705941711799795,0.03800367446424804,0.04671006990811426,0.01078500130686888,0.07031247369046896,0.027394243165360183,0.006753947814894596,0.0461296341436028,
0.1278535384749837,0.03791560086474074,0.04661974711666885,0.010731540716354826,0.07052028440209995,0.027507881457455127,0.006780070695081847,0.04634264617068583,
0.12864765983197302,0.037827527973453325,0.0465367673120053,0.010685030014651166,0.07072757659326322,0.02762015231349055,0.006805857375302328,0.04655344786388236,
0.12944178118895877,0.03773945901436653,0.046461081205129845,0.010645361191861828,0.07093443276287838,0.027731048334095752,0.006831306929119262,0.04676201564041923,
0.13023590254594808,0.03765139744581824,0.04639263692139514,0.010612425512166542,0.07114093690853267,0.027840562721162476,0.0068564186153590185,0.046968326895173454,
0.13103002390293383,0.037563346973232256,0.046331380016536694,0.010586113568466149,0.07134717446239064,0.027948689282503873,0.006881191879283789,0.04717236001777117,
0.13182414525992314,0.03747531156173412,0.0462772534941267,0.010566315336736673,0.0715532322259201,0.028055422436278614,0.00690562635366785,0.04737409440940988,
0.1326182666169089,0.03738729544863872,0.04623019782444643,0.010552920230056276,0.07175919830347116,0.028160757215178567,0.006929721859776148,0.04757351049939352,
0.1334123879738982,0.03729930315579454,0.04619015096477756,0.010545817152269876,0.0719651620347476,0.028264689270378576,0.006953478408244041,0.047770589761369664,
0.13420650933088396,0.037211339501769546,0.04615704838111142,0.010544894551257252,0.0721712139262097,0.028367214875247307,0.006976896199857134,0.047965314729259044,
0.13500063068786972,0.037123409613863456,0.046130823071274314,0.010550040471771239,0.07237744558145022,0.028468330928818033,0.006999975626230228,0.04815766901286715,
0.13579475204485902,0.037035518939931976,0.04611140558946615,0.010561142607813578,0.0725839496305858,0.02856803495901875,0.0070227172703844895,0.04834763731316793,
0.13658887340184478,0.036947673260007904,0.04609872407220787,0.01057808835451692,0.07279081965870744,0.028666325125661165,0.0070451219072220185,0.04853520543725026,
0.1373829947588341,0.03685987869770463,0.04609270426569275,0.010600764859502362,0.072998150133435,0.028763200223188203,0.007067190503897096,0.04872036031291733,
0.13817711611581984,0.036772141731387806,0.046093269554535195,0.010629059073682941,0.0732060363316221,0.02885865968317992,0.007088924220083465,0.04890309000292989,
0.13897123747280915,0.036684469205100774,0.04610034099190966,0.010662857801484458,0.07341457426525891,0.028952703576617885,0.007110324408137045,0.04908338371888385,
0.1397653588297949,0.03659686833922976,0.04611383733107127,0.010702047750455928,0.07362386060662167,0.02904533261590816,0.0071313926131536184,0.0492612318347135,
0.1405594801867842,0.03650934674089503,0.04613367505824857,0.010746515580243034,0.07383399261271881,0.029136548156663337,0.007152130572921039,0.04943662589981143,
0.14135360154376997,0.036421912414054305,0.04615976842689766,0.010796147950898937,0.07404506804908499,0.02922635219924395,0.007172540217765643,0.04960955865175643,
0.14214772290075928,0.03633457376930485,0.046192029493305656,0.01085083157050777,0.07425718511297513,0.02931474739006008,0.007192623670292556,0.04978002402864104,
0.14294184425774503,0.03624733963337114,0.046230368153530994,0.01091045324209713,0.07447044235601186,0.029401737022633725,0.007212383245019722,0.04994801718099009,
0.14373596561473434,0.03616021925826479,0.04627469218166609,0.010974899909816942,0.0746849386063402,0.02948732503842266,0.007231821447905478,0.05011353448326231,
0.1445300869717201,0.036073222330104064,0.04632490726940716,0.01104405870436305,0.07490077289034489,0.029571516027406736,0.007250940975769645,0.05027657354492652,
0.1453242083287094,0.03598635897758008,0.04638091706691504,0.011117816987624842,0.07511804435398577,0.029654315228437273,0.007269744715608091,0.05043713322110462,
0.14611832968569516,0.03589963978005736,0.04644262322494927,0.011196062396537348,0.07533685218380799,0.029735728529350473,0.007288235743800834,0.05059521362277362,
0.14691245104268447,0.03581307577529628,0.04650992543825716,0.01127868288611907,0.07555729552768392,0.02981576246684554,0.007306417325213795,0.050750816126518564,
0.14770657239967022,0.035726678466785164,0.04658272149019758,0.011365566771677982,0.07577947341534445,0.029894424226128324,0.0073242929121943474,0.050903943383829225,
0.14850069375665953,0.03564045983067032,0.046660907298579135,0.011456602770169005,0.0760034846787577,0.02997172164032101,0.007341866143460927,0.05105459932993231,
0.14929481511364529,0.03555443232227202,0.04674437696269051,0.011551680040687257,0.07622942787241362,0.03004766318963863,0.007359140842886948,0.05120278919215208,
0.1500889364706346,0.03546860888217494,0.04683302281149991,0.011650688224082459,0.07645740119357276,0.030122258000332563,0.007376121018179376,0.05134851949779161,
0.15088305782762035,0.035383002941881826,0.04692673545299999,0.011753517481680721,0.07668750240253848,0.030195515843401403,0.007392810859452341,0.05149179808152738,
0.15167717918460966,0.03529762842901891,0.04702540382467271,0.011860058533101143,0.07691982874301104,0.030267447133069197,0.007409214737696237,0.05163263409230971,
0.1524713005415954,0.03521249977208259,0.04712891524504821,0.011970202693155338,0.07715447686258299,0.03033806292503107,0.0074253372031428105,0.05177103799976181,
0.15326542189858472,0.035127631904716454,0.047237155466330456,0.012083841907819219,0.07739154273343467,0.030407374914465914,0.007441182983526781,0.051907021600069936,
0.15405954325557047,0.03504304026950833,0.04735000872806148,0.012200868789267209,0.07763112157328866,0.03047539543381565,0.007456756982244618,0.05204059802135719,
0.15485366461255978,0.034958740821297185,0.04746735781179514,0.012321176649960063,0.07787330776668211,0.030542137450330294,0.007472064276411133,0.052171781728533664,
0.15564778596954554,0.034874750029979994,0.04758908409675012,0.012444659535778394,0.0781181947866151,0.030607614563377968,0.0074871101148146196,0.05230058852761573,
0.15644190732653485,0.034791084882809166,0.04771506761641129,0.012571212258195026,0.07836587511663291,0.03067184100151862,0.007501899915771321,0.05242703556950698,
0.1572360286835206,0.03470776288617107,0.04784518711604716,0.012700730425480226,0.07861644017340057,0.030734831619340052,0.007516439264880082,0.05255114135323332,
0.15803015004050636,0.03462480206683694,0.04797932011111059,0.012833110472934705,0.07886998022982607,0.030796601894054622,0.007530733912678087,0.052672925728624836,
0.15882427139749566,0.03454222097267749,0.04811734294648855,0.012968249692146305,0.07912658433878983,0.030857167921854625,0.0075447897721986675,0.05279240989843721,
0.15961839275448142,0.03446003867283319,0.04825913085656653,0.013106046259267186,0.07938634025753652,0.030916546414024332,0.007558612916432216,0.0529096164199049,
0.16041251411147073,0.03437827475733222,0.04840455802607182,0.013246399262309255,0.07964933437278485,0.030974754692806077,0.007572209575691323,0.05302456920571876,
0.16120663546845648,0.03429694933614881,0.0485534976516591,0.013389208727456461,0.07991565162661068,0.031031810687017884,0.007585586134881289,0.05313729352442055,
0.1620007568254458,0.034216083037694904,0.048705822004201295,0.013534375644393457,0.08018537544315799,0.031087732927419762,0.0075987491306772565,0.05324781600020676,
0.16279487818243155,0.03413569700673867,0.048861402491747565,0.013681801990651006,0.08045858765623143,0.031142540541825584,0.007611705248609257,0.053356164612134174,
0.16358899953942085,0.0340558129017436,0.04902010972310962,0.013831390754969386,0.08073536843782458,0.031196253249957263,0.0076244613200565576,0.053462368692719676,
0.1643831208964066,0.03397645289162277,0.049181813572036784,0.013983045959681974,0.08101579622763545,0.031248891358037757,0.007637024319152736,0.05356645892592664,
0.16517724225339592,0.03389763965190298,0.04934638324194002,0.014136672682121935,0.08129994766362195,0.03130047575311917,0.0076494013596030315,0.05366846734453045,
0.16597136361038167,0.03381939636029395,0.04951368733112342,0.014292177075055661,0.08158789751364845,0.03135102789714226,0.007661599691415495,0.05376842732685565,
0.16676548496737098,0.03374174669165877,0.049683593898482356,0.01444946638614753,0.081879718608274,0.03140056982072338,0.007673626697547662,0.05386637359287745,
0.16755960632435674,0.033664714812381494,0.04985597052962556,0.014608448976461304,0.08217548177473193,0.03144912411666483,0.007685489890470445,0.05396234219968025,
0.16835372768134604,0.03358832537412887,0.050030684403378975,0.01476903433800417,0.0824752557721497,0.03149671393318458,0.00769719690865105,0.05405637053626588,
0.1691478490383318,0.03351260350700342,0.05020760235862789,0.01493113311032023,0.08277910722805765,0.03154336296686108,0.007708755512956832,0.05414849731770481,
0.1699419703953211,0.033437574812085556,0.05038659096145371,0.015094657096140822,0.08308710057623342,0.03158909545528923,0.007720173582982034,0.05423876257862327,
0.17073609175230686,0.03336326535336301,0.050567516572521176,0.015259519276099864,0.0833992979959285,0.031633936169443155,0.007731459113299486,0.05432720766602009,
0.17153021310929617,0.033289701649046356,0.050750245414671415,0.015425633822522936,0.08371575935252237,0.03167791040574179,0.007742620209639341,0.05441387523140672,
0.17232433446628193,0.033216910662269825,0.05093464364067563,0.015592916112299545,0.08403654213964844,0.03172104397781326,0.007753665084997097,0.054498809222264646,
0.17311845582327123,0.03314491979117702,0.05112057740110419,0.015761282738848557,0.08436170142283542,0.03176336320795401,0.0077646020556731395,0.05458205487281468,
0.173912577180257,0.033073756858391944,0.05130791291226498,0.015930651523187445,0.0846912897847066,0.03180489491827897,0.007775439537246149,0.054663658694092815,
0.1747066985372463,0.03300345009987602,0.0514965165241651,0.016100941524116494,0.08502535727177807,0.03184566642155896,0.0077861860404828155,0.05474366846332794,
0.17550081989423205,0.032934028153172534,0.05168625478844924,0.01627207304752975,0.08536395134289622,0.03188570551174195,0.007796850167186343,0.054822133212617176,
0.17629494125122136,0.032865520045040196,0.051876994526268226,0.016443967654864968,0.08570711681935383,0.03192504045415472,0.007807440605986252,0.05489910321689451,
0.17708906260820712,0.032797955178478444,0.05206860289603042,0.016616548170705337,0.08605489583672221,0.031963699975382086,0.007817966128072142,0.05497462998118956,
0.17788318396519642,0.0327313633191475,0.052260947460989096,0.01678973868954622,0.08640732779843686,0.03200171325282043,0.007828435582874042,0.05504876622717332,
0.17867730532218218,0.03266577458118671,0.052453896256618164,0.016963464581740695,0.08676444933117208,0.03203910990390331,0.007838857893692113,0.05512156587898848,
0.1794714266791715,0.03260121941243568,0.052647317857729053,0.0171376524986381,0.08712629424203934,0.03207591997499653,0.007849242053278456,0.055193084048362186,
0.18026554803615724,0.032537728579062855,0.052841081445280755,0.017312230376930155,0.08749289347764284,0.03211217392996087,0.007859597119373863,0.05526337701899982,
0.18105966939314655,0.032475333149607356,0.05303505687283515,0.01748712744221974,0.08786427508502434,0.03214790263838081,0.007869932210202383,0.05533250223025867,
0.1818537907501323,0.03241406447844003,0.053229114732609786,0.01766227421182775,0.08824046417452884,0.032183137363457924,0.00788025649992668,0.05540051826010096,
0.18264791210711806,0.032353954188651037,0.05342312642107982,0.017837602496853823,0.08862148288462081,0.03221790974956823,0.00789057921406711,0.05546748480732618,
0.18344203346410737,0.0322950341543712,0.0536169642040815,0.018013045403507115,0.08900735034867979,0.03225225180948305,0.007900909624887544,0.05553346267308315,
0.18423615482109312,0.03223733648253578,0.05381050128136854,0.018188537333723564,0.08939808266380296,0.03228619591125347,0.007911257046750955,0.05559851374166257,
0.18503027617808243,0.032180893494099604,0.054003611850573764,0.01836401398508651,0.08979369286164034,0.03231977476475907,0.007921630831447868,0.05566270096057137,
0.1858243975350682,0.03212573770471311,0.05419617117052756,0.018539412350067737,0.09019419088128808,0.032353021407922095,0.007932040363500734,0.055726088319890496,
0.1866185188920575,0.032071901804870045,0.05438805562388538,0.018714670714606287,0.09059958354426284,0.032385969192588744,0.007942495055447366,0.05578874083091824,
0.18741264024904325,0.03201941863953767,0.054579142779016314,0.018889728656042777,0.09100987453157947,0.03241865177007971,0.007953004343106505,0.055850724504101404,
0.18820676160603256,0.031968321187281656,0.054769311451105224,0.01906452704042699,0.09142506436295306,0.03245110307641306,0.007963577680828636,0.055912106326257274,
0.1890008829630183,0.031918642538898194,0.05495844176242098,0.019239008019216908,0.0918451503781439,0.03248335731720274,0.00797422453673515,0.055972954237089464,
0.18979500432000762,0.03187041587556658,0.055146415201703686,0.0194131150253874,0.09227012672046414,0.03251544895223682,0.007984954387948901,0.05603333710500089,
0.19058912567699338,0.03182367444653656,0.05533311468262432,0.01958679276896699,0.09269998432246165,0.03254741267974022,0.007995776715819268,0.05609332470220784,
0.19138324703398268,0.03177845154636515,0.055518424601270086,0.019759987232021305,0.09313471089379716,0.032579283420327024,0.008006701001144725,0.05615298767915886,
0.19217736839096844,0.03173478049171835,0.055702230892609776,0.01993264566310185,0.09357429091132735,0.03261109630064861,0.008017736719395992,0.056212397538262876,
0.19297148974795775,0.03169269459775431,0.05588442108589376,0.02010471657117898,0.09401870561140646,0.03264288663674398,0.008028893335942705,0.05627162660693093,
0.1937656111049435,0.03165222715410442,0.05606488435894372,0.020276149719077746,0.09446793298441711,0.03267468991709954,0.008040180301286573,0.05633074800993655,
0.1945597324619328,0.03161341140047008,0.05624351159128804,0.02044689611643575,0.09492194777153921,0.03270654178542615,0.008051607046303954,0.05638983564109953,
0.19535385381891857,0.03157628050185334,0.056420195416099495,0.020616908012201726,0.09538072146376514,0.032738478023161835,0.008063182977500699,0.056448964134298285,
0.19614797517590787,0.03154086752343994,0.056594830270892384,0.02078613888669385,0.09584422230316682,0.032770534531709174,0.008074917472282126,0.05650820883381611,
0.19694209653289363,0.03150720540515409,0.0567673124469376,0.02095454344323666,0.09631241528641969,0.03280274731441695,0.00808681987424088,0.05656764576402696,
0.19773621788988294,0.03147532693590477,0.05693754013735455,0.021122077599395384,0.09678526217058686,0.03283515245831592,0.008098899488465417,0.05662735159842655,
0.1985303392468687,0.03144526472754358,0.057105413483840115,0.021288698477826464,0.0972627214811648,0.032867786115619545,0.00811116557687182,0.056687403628014804,
0.199324460603858,0.03141705118855501,0.05727083462199566,0.021454364396762855,0.09774474852239083,0.032900684485000484,0.008123627353561574,0.05674787972903575,
0.20011858196084376,0.03139071849750001,0.057433707725214736,0.021619034860152667,0.09823129538981071,0.032933883792654606,0.008136293980207843,0.05680885833008134,
0.20091270331783306,0.03136629857623446,0.05759393904709457,0.021782670547469497,0.09872231098510305,0.03296742027316445,0.008149174561472818,0.05687041837856572,
0.20170682467481882,0.031343823062924235,0.0577514369623365,0.021945233303212644,0.0992177410331559,0.03300133015017453,0.008162278140458532,0.05693263930657679,
0.20250094603180813,0.031323323284879225,0.05790611200610121,0.02210668612611518,0.09971752810138924,0.03303564961689144,0.008175613694193585,0.056995600996112096,
0.20329506738879388,0.03130483023122844,0.058057876911786106,0.022266993158077727,0.10022161162131499,0.03307041481642192,0.008189190129158051,0.05705938374370658,
0.2040891887457832,0.03128837452545932,0.05820664664719358,0.022426119672845485,0.10072992791232517,0.03310566182196255,0.008203016276848859,0.05712406822445969,
0.20488331010276895,0.031273986397844115,0.05835233844906053,0.02258403206444584,0.10124241020769677,0.03314142661685491,0.008217100889387782,0.05718973545546973,
0.2056774314597547,0.03126169565777647,0.058494871855920734,0.022740697835403546,0.10175898868279992,0.03317774507452057,0.008231452635174155,0.05725646675868374,
0.206471552816744,0.031251531666042005,0.058634168739273455,0.022896085584750255,0.10227959048549486,0.03321465293829032,0.008246080094584277,0.05732434372317147,
0.20726567417372976,0.03124352330704626,0.058770153333033336,0.023050164995845012,0.10280413976870063,0.033252185801142566,0.008260991755719465,0.05739344816683237,
0.20805979553071907,0.031237698961024053,0.058902752261237985,0.02320290682402171,0.10333255772511749,0.033290379085365744,0.008276196010204547,0.05746386209754467,
0.20885391688770483,0.03123408647625417,0.05903189456399151,0.02335428288407956,0.10386476262408208,0.033329268022159984,0.008291701149038593,0.05753566767376629,
0.20964803824469413,0.031232713141303305,0.0591575117216242,0.023504266037631862,0.10440066985053426,0.033368887631193195,0.008307515358499468,0.05760894716459735,
0.2104421596016799,0.031233605657323586,0.05927953767705014,0.02365283018032848,0.1049401919460709,0.03340927270012695,0.008323646716103816,0.05768378290931504,
0.2112362809586692,0.03123679011042773,0.059397908856306594,0.02379995022896674,0.10548323865206177,0.033450457764127674,0.008340103186623921,0.05776025727639142,
0.21203040231565495,0.031242291944166226,0.059512564187260586,0.02394560210850528,0.10602971695479921,0.03349247708537866,0.008356892618162803,0.05783845262200545,
0.21282452367264426,0.031250135932130704,0.05962344511647051,0.024089762738994932,0.10657953113265266,0.03353536463260836,0.008374022738288835,0.057918451248060866,
0.21361864502963002,0.03126034615070777,0.05973049562419212,0.024232410022440427,0.10713258280519586,0.03357915406065059,0.008391501150231044,0.05800033535972218,
0.21441276638661932,0.03127294595200767,0.059833662237520756,0.024373522829606243,0.10768877098427401,0.033623878690052074,0.008409335329136201,0.05808418702248133,
0.21520688774360508,0.03128795793699185,0.05993289404166326,0.02451308098677954,0.10824799212697567,0.03366957148674278,0.008427532618388715,0.05817008811876803,
0.2160010091005944,0.031305403928823555,0.06002814268933562,0.024651065262502842,0.10881014019047204,0.03371626504178436,0.00844610022599417,0.05825812030411757,
0.21679513045758014,0.0313253049464656,0.060119362408284055,0.02478745735428847,0.10937510668868466,0.033763991551212125,0.008465045221027387,0.05834836496290981,
0.21758925181456945,0.03134768117854912,0.06020651000692975,0.024922239875326463,0.10994278075074054,0.033812782795985624,0.00848437453014565,0.058440903163694366,
0.2183833731715552,0.03137255195753715,0.060289544878139666,0.025055396341197234,0.11051304918117155,0.033862670122063045,0.008504094934167775,0.058535815614116735,
0.21917749452854451,0.03139993573420669,0.0603684290011279,0.02518691115659962,0.1110857965218133,0.03391368442061419,0.008524213064719486,0.058633182615460994,
0.21997161588553027,0.03142985005247255,0.06044312694149487,0.02531676960210471,0.1116609051153566,0.03396585610838702,0.00854473540094564,0.05873308401682524,
0.22076573724251958,0.0314623115245761,0.0605136058494134,0.025444957820945153,0.11223825517050198,0.03401921510824214,0.008565668266289567,0.058835599168945846,
0.22155985859950533,0.03149733580666212,0.06057983545597354,0.02557146280584927,0.11281772482866723,0.034073790829869874,0.008587017825339872,0.05894080687768795,
0.22235397995649464,0.03153493757476615,0.06064178806770011,0.025696272385928726,0.11339919023219415,0.03412961215070381,0.00860879008074483,0.05904878535721936,
0.2231481013134804,0.03157513050123495,0.06069943855925925,0.025819375213628,0.1139825255940005,0.034186707397045234,0.008630990870194557,0.05915961218288595,
0.2239422226704697,0.03161792723160216,0.060752764364372894,0.025940760751743442,0.11456760326861956,0.03424510432541187,0.008653625863470953,0.05927336424380669,
0.22473634402745546,0.0316633393619409,0.060801745464962066,0.02606041926051913,0.1151542938245691,0.0343048301041247,0.008676700559565436,0.05939011769520749,
0.22553046538444477,0.031711377416715,0.06084636437854232,0.02617834178482627,0.11574246611798839,0.03436591129514614,0.00870022028386438,0.059509947910513096,
0.22632458674143052,0.03176205082714979,0.06088660614389648,0.02629452014143237,0.1163319873674811,0.03442837383618246,0.008724190185402096,0.05963292943321697,
0.22711870809841983,0.03181536791014356,0.060922458305052225,0.026408946906365804,0.1169227232300994,0.03449224302306338,0.008748615234181184,0.05975913592854939,
0.22791282945540559,0.03187133584773985,0.06095391089359416,0.02652161540238087,0.11751453787840303,0.034557543492411275,0.00877350021855997,0.05988864013496477,
0.22870695081239134,0.03192996066718099,0.060980956409341466,0.026632519686528085,0.11810729407852545,0.03462429920461223,0.008798849742706763,0.06002151381546955,
0.22950107216938065,0.0319912472215626,0.0610035897994243,0.0267416545378338,0.11870085326917783,0.03469253342710087,0.008824668224120565,0.06015782770881254,
0.2302951935263664,0.032055199171108335,0.061021808435793974,0.026849015445092772,0.11929507564151906,0.03476226871797053,0.008850959891217884,0.06029765148056015,
0.2310893148833557,0.03212181896508397,0.06103561209120317,0.026954598594776842,0.11988982021981975,0.034833526909920226,0.00887772878098523,0.0604410536740797,
0.23188343624034147,0.03219110782436945,0.06104500291369399,0.027058400859062335,0.12048494494284563,0.03490632909454938,0.008904978736696847,0.06058810166145394,
0.23267755759733078,0.032263065724707024,0.06104998539963326,0.027160419783978384,0.12108030674588491,0.03498069560701105,0.008932713405697231,0.06073886159435125,
0.23347167895431653,0.03233769138064313,0.061050566365335415,0.027260653577677995,0.12167576164334323,0.03505664601103414,0.008960936237247894,0.06089339835487616,
0.23426580031130584,0.03241498223018176,0.06104675491731489,0.027359101098833005,0.12227116481182886,0.03513419908432476,0.008989650480437894,0.061051775506425564,
0.2350599216682916,0.03249493442016576,0.06103856242121066,0.027455761845153893,0.12286637067364924,0.03521337280435649,0.009018859182157599,0.061214055244576474,
0.2358540430252809,0.032577542792402873,0.06102600246942684,0.027550635942034874,0.12346123298063981,0.035294184334559074,0.009048565185135152,0.06138029834803205,
0.23664816438226666,0.03266280087055236,0.06100909084753393,0.02764372413132438,0.12405560489824408,0.035376650010914695,0.0090787711260351,0.061550564129653096,
0.23744228573925596,0.0327507008477877,0.060987845499476334,0.027735027760220653,0.12464933908976467,0.035460785328970824,0.009109479433618646,0.06172491038760306,
0.23823640709624172,0.032841233575250685,0.0609622864916323,0.027824548770291717,0.12524228780070462,0.035546604931278154,0.00914069232696499,0.06190339335663531,
0.23903052845323103,0.0329343885513111,0.06093243597577306,0.027912289686618793,0.12583430294311637,0.03563412259526193,0.009172411813753192,0.062086067659551956,
0.23982464981021678,0.03303015391164633,0.06089831815096879,0.027998253607061863,0.1264252361798772,0.035723351221534624,0.009204639688604055,0.06227298625886453,
0.2406187711672061,0.033128516420153936,0.060859959224489134,0.028082444191645805,0.12701493900880934,0.03581430282265756,0.009237377531481506,0.06246420040868747,
0.24141289252419185,0.03322946146071047,0.0608173873717465,0.028164865652065118,0.12760326284656268,0.035906988512359,0.00927062670615294,0.06265975960689621,
0.24220701388118115,0.03333297302978862,0.060770632695330916,0.028245522741305106,0.12819005911217907,0.03600141849521559,0.009304388358707963,0.06285971154758217,
0.2430011352381669,0.03343903372994448,0.06071972718318512,0.02832442074337704,0.12877517931025684,0.036097602056804,0.009338663416135075,0.06306410207383818,
0.24379525659515622,0.033547624764186115,0.060664704665969175,0.028401565463164646,0.1293584751136344,0.03619554755432907,0.009373452584955737,0.06327297513090793,
0.24458937795214197,0.033658725931233806,0.06060560077366368,0.028476963216379055,0.1299397984455137,0.03629526240773474,0.009408756349915334,0.06348637271973427,
0.24538349930913128,0.033772315621682036,0.06054245289146084,0.02855062081961895,0.13051900156094368,0.036396753091303295,0.009444574972730532,0.06370433485094164,
0.24617762066611704,0.03388837081507223,0.06047530011499269,0.028622545580532684,0.13109593712758635,0.03650002512574858,0.009480908490892535,0.06392689949928859,
0.24697174202310634,0.03400686707788505,0.060404183204945394,0.028692745288078872,0.1316704583056885,0.03660508307080814,0.009517756716525803,0.06415410255862707,
0.2477658633800921,0.034127778562459944,0.06032914454110874,0.02876122820288191,0.13224241882718235,0.03671193051833939,0.009555119235301784,0.06438597779740576,
0.2485599847370814,0.03425107800684954,0.06025022807590969,0.02882800304767869,0.13281167307384278,0.03682057008592392,0.00959299540540721,0.06462255681475494,
0.24935410609406716,0.03437673673561523,0.06016747928747867,0.028893078997852716,0.1333780761544272,0.03693100341098444,0.009631384356566578,0.06486386899719142,
0.25014822745105647,0.03450472466157012,0.06008094513229683,0.028956465672051793,0.1339414839807286,0.03704323114541799,0.009670284989118448,0.06510994147598197,
0.2509423488080422,0.034635010288474384,0.05999067399747236,0.029018173122885373,0.13450175334247175,0.03715725295074922,0.00970969597314519,0.06536079908520458,
0.251736470165028,0.034767560714687944,0.05989671565269326,0.029078211827697778,0.1350587419809871,0.03727306749380691,0.009749615747655871,0.06561646432054648,
0.2525305915220173,0.034902341637784204,0.05979912120190394,0.029136592679413473,0.1356123086615989,0.037390672442926896,0.009790042519822007,0.06587695729887878,
0.25332471287900304,0.03503931736012834,0.05969794303475212,0.029193326977450654,0.1361623132446644,0.03751006446468402,0.009830974264265978,0.06614229571864734,
0.25411883423599235,0.03517845079542266,0.059593234777852444,0.02924842641869956,0.13670861675520685,0.037631239221155945,0.009872408722401858,0.06641249482111966,
0.2549129555929781,0.03531970347622136,0.05948505124591228,0.029301903088561933,0.13725108145108486,0.037754191367720735,0.009914343401828549,0.06668756735252804,
0.2557070769499674,0.03546303556241565,0.05937344839276466,0.02935376945204844,0.13778957088964627,0.03787891455139065,0.009956775575775125,0.06696752352714827,
0.25650119830695317,0.03560840585069045,0.059258483262352696,0.029404038344930855,0.13832394999281636,0.03800540140968382,0.009999702282598305,0.06725237099135432,
0.2572953196639425,0.03575577178495252,0.0591402139397092,0.029452722964946217,0.1388540851105734,0.03813364357003556,0.010043120325332092,0.06754211478868838,
0.25808944102092823,0.03590508946772975,0.05901869950197424,0.029499836863050313,0.1393798440827691,0.038263631649750614,0.010087026271289637,0.06783675732598612,
0.25888356237791754,0.03605631367254061,0.058893999969492634,0.029545393934718122,0.13990109629925357,0.03839535525649777,0.010131416451717513,0.06813629834059635,
0.2596776837349033,0.03620939785723192,0.05876617625703299,0.029589408411288955,0.14041771275826903,0.03852880298934762,0.01017628696150258,0.06844073486873438,
0.2604718050918926,0.03636429417828285,0.05863529012516831,0.02963189485135457,0.14092956612307905,0.03866396244035463,0.010221633658931726,0.06875006121500778,
0.26126592644887836,0.0365209535060723,0.05850140413185805,0.029672868132188435,0.14143653077680407,0.03880082019668396,0.010267452165504816,0.0690642689231532,
0.26206004780586767,0.03667932544110599,0.058364581584270096,0.02971234344121473,0.1419384828754366,0.038939361843283456,0.010313737865801286,0.0693833467480225,
0.2628541691628534,0.03683935833119942,0.0582248864908801,0.02975033626751586,0.14243530039901353,0.03907957196610123,0.010360485907400862,0.06970728062885556,
0.26364829051984273,0.03700099928961153,0.05808238351388512,0.029786862393377404,0.14292686320092632,0.039221434155848896,0.010407691200858948,0.07003605366387752,
0.2644424118768285,0.03716419421412421,0.05793713792196684,0.029821937885869645,0.14341305305535196,0.03936493101231025,0.010455348419737286,0.07036964608625694,
0.2652365332338178,0.0373288878070612,0.057789215543438854,0.029855579088465003,0.14389375370279225,0.03951004414919513,0.010503452000690623,0.07070803524146155,
0.26603065459080355,0.03749502359623995,0.05763868271981167,0.02988780261269094,0.1443688508937112,0.039656754199538076,0.010551996143610158,0.07105119556604714,
0.26682477594779286,0.03766254395684892,0.05748560625980718,0.02991862532981793,0.14483823243026428,0.03980504082164119,0.010600974811824631,0.07139909856791497,
0.2676188973047786,0.03783139013424264,0.05733005339385395,0.029948064362582506,0.1453017882061145,0.039954882705560336,0.010650381732359986,0.07175171280807228,
0.2684130186617679,0.03800150226764549,0.057172091729092954,0.029976137076945217,0.14575941024433606,0.04010625758013369,0.010700210396258684,0.07210900388393035,
0.2692071400187537,0.03817281941475494,0.05701178920492242,0.030002861073883776,0.14621099273340651,0.040259142220551804,0.0107504540589598,0.07247093441417339,
0.270001261375743,0.03834527957723425,0.05684921404910918,0.030028254181221604,0.14665643206129336,0.0404135124564679,0.010801105740741106,0.07283746402523145,
0.27079538273272874,0.038518819727083604,0.0566844347344925,0.0300523344454922,0.14709562684764257,0.04056934318064689,0.010852158227224512,0.07320854933938936,
0.27158950408971805,0.03869337583387849,0.05651751993630564,0.030075120123839918,0.14752847797407984,0.04072660835815191,0.010903604069946305,0.07358414396456402,
0.2723836254467038,0.03886888289286293,0.05634853849013852,0.03009662967595768,0.14795488861263748,0.04088528103606679,0.010955435586993797,0.07396419848578045,
0.2731777468036931,0.03904527495388477,0.05617755935056393,0.030116881756062277,0.14837476425232343,0.04104533335375294,0.01100764486370998,0.0743486604583775,
0.27397186816067887,0.03922248515115936,0.056004651550448786,0.030135895204908197,0.14878801272384998,0.041206736553638885,0.011060223753468084,0.0747374744029723,
0.2747659895176682,0.03940044573384723,0.055829884160969886,0.03015368904184045,0.14919454422254355,0.04136946099254083,0.011113163878517823,0.07513058180221291,
0.27556011087465393,0.039579088097430846,0.05565332625235354,0.030170282456887618,0.14959427132945866,0.04153347615351248,0.011166456630905425,0.07552792109934689,
0.2763542322316397,0.03975834281587457,0.055475046855356064,0.030185694802895797,0.1499871090307202,0.041698750658222095,0.011220093173469491,0.07592942769863362,
0.277148353588629,0.03993813967455135,0.055295114923501955,0.030199945587704464,0.1503729747351218,0.04186525227985512,0.011274064440914923,0.07633503396762627,
0.27794247494561475,0.04011840770391874,0.05511359929609458,0.030213054466365238,0.15075178829000904,0.04203294795653986,0.01132836114096712,0.07674466924134941,
0.27873659630260406,0.04029907521392633,0.054930568662013436,0.030225041233404523,0.15112347199547838,0.04220180380529444,0.0113829737556089,0.0771582598283963,
0.2795307176595898,0.04048006982913578,0.05474609152431101,0.03023592581513103,0.1514879506169235,0.042371785136491966,0.011437892542402456,0.07757572901896949,
0.2803248390165791,0.04066131852453374,0.05456023616562073,0.030245728261989166,0.1518451513959642,0.042542856468841934,0.011493107535898979,0.07799699709488743,
0.2811189603735649,0.04084274766201763,0.05437307061438661,0.030254468740959405,0.15219500405979156,0.042714981544884324,0.01154860854913838,0.07842198134157774,
0.2819130817305542,0.04102428302753286,0.05418466261192396,0.030262167528006655,0.15253744082896747,0.04288812334699356,0.011604385175241821,0.07885059606207738,
0.28270720308753994,0.04120584986883982,0.05399507958031965,0.030268845000577617,0.15287239642371528,0.04306224411388859,0.011660426789099575,0.07928275259305839,
0.28350132444452925,0.04138737293388788,0.053804388591178996,0.030274521630148262,0.15319980806874067,0.043237305357645285,0.01171672254915696,0.0797183593228965,
0.284295445801515,0.0415687765097731,0.053612656335225724,0.03027921797482241,0.1535196154966226,0.043413267881206974,0.01177326139930104,0.08015732171179833,
0.2850895671585043,0.041749984462255446,0.05341994909275996,0.030282954671982477,0.15383176094981446,0.043590091796388564,0.01183003207085074,0.0805995423140019,
0.28588368851549006,0.041930920275810815,0.05322633270497887,0.030285752430993396,0.15413618918129735,0.04376773654236908,0.011887023084653102,0.08104492080206349,
0.28667780987247937,0.04211150709419209,0.05303187254616272,0.030287632025960836,0.15443284745392694,0.04394616090466745,0.011944222753288372,0.08149335399324248,
0.2874719312294651,0.04229166776147311,0.05283663349672941,0.030288614288544687,0.15472168553851814,0.04412532303459533,0.012001619183386521,0.08194473587799363,
0.28826605258645444,0.04247132486354846,0.05264067991715813,0.030288720100828875,0.1550026557107091,0.044305180469180784,0.012059200278057862,0.08239895765057573,
0.2890601739434402,0.04265040077006162,0.05244407562278297,0.030287970388248556,0.15527571274664906,0.04448569015155583,0.012116953739440241,0.08285590774178297,
0.2898542953004295,0.04282881767673297,0.05224688385945619,0.03028638611257569,0.155540813917555,0.044666808451800606,0.012174867071365291,0.08331547185380454,
0.29064841665741525,0.043006497648058924,0.05204916728007972,0.030283988264964,0.15579791898318052,0.044848491188236174,0.012232927582146192,0.08377753299721544,
0.29144253801440456,0.043183362660352546,0.05185098792200296,0.03028079785905427,0.15604699018424195,0.04503069364915743,0.01229112238748924,0.08424197153010059,
0.2922366593713903,0.043359334645095844,0.05165240718528417,0.030276835924141057,0.156287992233848,0.04521337061499718,0.012349438413531448,0.08470866519931171,
0.2930307807283796,0.043534335532572944,0.0514534858118116,0.03027212349840171,0.1565208923079773,0.04539647638091163,0.012407862400006249,0.08517748918385583,
0.2938249020853654,0.043708287295753136,0.05125428386528045,0.03026668162218885,0.1567456600350497,0.04557996477977738,0.012466380903539371,0.08564831614041109,
0.2946190234423547,0.043881111994392395,0.05105486071202057,0.030260531331387275,0.15696226748463735,0.04576378920558912,0.012524980301076667,0.08612101625096442,
0.29541314479934044,0.044052731819321254,0.05085527500266913,0.03025369365083642,0.15717068915536173,0.04594790263724649,0.012583646793445735,0.08659545727256374,
0.29620726615632975,0.04422306913688686,0.050655584654682166,0.030246189587819317,0.15737090196202205,0.04613225766271873,0.012642366409052868,0.08707150458917513,
0.2970013875133155,0.04439204653351647,0.05045584683567815,0.030238040125619193,0.15756288522200076,0.04631680650357429,0.012701125007716849,0.08754902126563409,
0.2977955088703048,0.04455958686036939,0.05025611794760613,0.030229266217144734,0.1577466206409923,0.046501501039862884,0.012759908284640888,0.08802786810367735,
0.29858963022729057,0.04472561327804418,0.05005645361173068,0.03021988877862523,0.15792209229810042,0.046686292835336374,0.012818701774523903,0.08850790370004037,
0.2993837515842763,0.04489004930130756,0.04985690865442502,0.03020992868337666,0.1580892866303501,0.046871133162994766,0.012877490855812175,0.08898898450660363,
0.30017787294126563,0.045052818843811425,0.049657537093763596,0.030199406755639768,0.15824819241665833,0.04705597303094292,0.01293626075509229,0.08947096489256909,
0.3009719942982514,0.04521384626276413,0.04945839212690466,0.030188343764491282,0.15839880076130902,0.047240763208543465,0.012994996551626056,0.0899536972086457,
0.3017661156552407,0.04537305640352191,0.049259526118253065,0.03017676041782933,0.15854110507697627,0.0474254542528503,0.013053683182027973,0.0904370318532216,
0.30256023701222645,0.04553037464406635,0.049060990588393236,0.03016467735643408,0.15867510106733937,0.04760999653530748,0.013112305445085707,0.09092081734049837,
0.30335435836921576,0.04568572693933372,0.04886283620378177,0.03015211514810459,0.158800786709334,0.04779434026869729,0.013170848006723856,0.091404900370561,
0.3041484797262015,0.04583903986536196,0.0486651127671889,0.030139094281872905,0.15891816223508162,0.04797843553432143,0.013229295405110985,0.09188912590135609,
0.3049426010831908,0.045990240663221105,0.04846786920887789,0.030125635162296466,0.1590272301135393,0.04816223230939871,0.013287632055909984,0.09237333722254734,
0.3057367224401766,0.04613925728269293,0.04827115357851092,0.030111758103829617,0.15912799503191105,0.04834568049466218,0.01334584225767143,0.0928573760312173,
0.3065308437971659,0.046286018425665584,0.04807501303776999,0.0300974833252753,0.159220463876861,0.048528729942139054,0.013403910197369594,0.09334108250938114,
0.30732496515415164,0.04643045358920934,0.047879493853681114,0.030082830944317834,0.15930464571556774,0.04871133048309572,0.013461819956080458,0.09382429540327766,
0.30811908651114095,0.04657249310829947,0.04768464139262975,0.03006782097213767,0.15938055177665833,0.048893431956130634,0.013519555514801041,0.09430685210439986,
0.3089132078681267,0.046712068198152705,0.04749050011505539,0.030052473308108944,0.15944819543105945,0.04907498423539734,0.013577100760409041,0.09478858873222634,
0.309707329225116,0.04684911099614346,0.047297113570812926,0.03003680773458077,0.15950759217280142,0.04925593725894025,0.0136344394917617,0.09526934021861244,
0.31050145058210177,0.046983554603267134,0.04710452439518839,0.03002084391174315,0.15955875959981142,0.04943624105712522,0.013691555425932643,0.09574894039379918,
0.3112955719390911,0.047115333125117204,0.04691277430555609,0.030004601372578148,0.15960171739472898,0.049615845781147395,0.013748432204585144,0.09622722207399523,
0.31208969329607683,0.047244381712343686,0.04672190409866486,0.029988099517897316,0.15963648730577693,0.049794701731598244,0.01380505340048024,0.09670401715048624,
0.31288381465306614,0.047370636600560706,0.046531953648539945,0.029971357611466135,0.1596630931277183,0.049972759387074246,0.01386140252411784,0.09717915668022413,
0.3136779360100519,0.04749403514967146,0.046342961904987864,0.029954394775216112,0.15968156068293018,0.05014996943280945,0.013917463030508817,0.09765247097784698,
0.3144720573670412,0.04761451588257918,0.04615496689269088,0.02993722998454554,0.15969191780262337,0.050326282789314156,0.013973218326075966,0.0981237897090789,
0.31526617872402696,0.04773201852325327,0.04596800571087795,0.02991988206370957,0.15969419430823445,0.05050165064100211,0.014028651775681425,0.0985929419854579,
0.31606030008101627,0.047846484034120305,0.045782114533559,0.029902369681300642,0.15968842199301653,0.05067602446478876,0.014083746709778073,0.09905975646033811,
0.316854421438002,0.04795785465275013,0.045597328610308914,0.029884711345819836,0.159674634603853,0.05084935605864316,0.014138486431682157,0.0995240614261117,
0.31764854279499133,0.04806607392780778,0.045413682267588296,0.02986692540134031,0.15965286782331758,0.05102159757007615,0.0141928542249643,0.09998568491259413,
0.3184426641519771,0.04817108675424282,0.04523120891058732,0.02984903002326352,0.1596231592520016,0.05119270152454728,0.014246833360955823,0.1004444547865152,
0.3192367855089664,0.048272839407688076,0.04504994102557953,0.029831043214169323,0.15958554839112854,0.05136262085377362,0.014300407106367166,0.1009001988520568,
0.32003090686595215,0.048371279578040535,0.04486991018277196,0.029812982799760916,0.15954007662547462,0.05153130892392285,0.014353558731014904,0.10135274495237716,
0.32082502822294146,0.048466356402197826,0.04469114703963866,0.029794866424905527,0.15948678720661133,0.051698719563673785,0.014406271515653815,0.10180192107206047,
0.3216191495799272,0.04855802049592455,0.04451368134472411,0.029776711549771885,0.1594257252364857,0.05186480709212687,0.014458528759910258,0.10224755544042893,
0.32241327093691297,0.04864622398482322,0.044337541941903265,0.029758535446065545,0.15935693765135184,0.05202952634654769,0.014510313790312876,0.10268947663565348,
0.3232073922939023,0.04873092053438575,0.044162756775085146,0.02974035519336311,0.15928047320606517,0.052192832709926425,0.014561609968416484,0.10312751368959816,
0.32400151365088803,0.048812065379101974,0.043989352893346725,0.029722187675546248,0.15919638245875023,0.05235468213833586,0.014612400699014776,0.10356149619333141,
0.32479563500787734,0.048889615350602364,0.04381735645648406,0.029704049577336487,0.1591047177558496,0.052515031188071104,0.014662669438437394,0.10399125440323678,
0.3255897563648631,0.048963528904813224,0.04364679274096777,0.029685957380931664,0.15900553321756097,0.052673837042553434,0.014712399702926723,0.1044166193476545,
0.3263838777218524,0.04903376614810367,0.04347768614628984,0.02966792736274487,0.1588988847236673,0.05283105753898123,0.014761575077089509,0.10483742293398418,
0.32717799907883816,0.049100288862403876,0.043310060201689114,0.029649975590246666,0.15878482989976336,0.05298665119471057,0.014810179222418306,0.10525349805617767,
0.32797212043582746,0.04916306052927586,0.04314393757324241,0.029632117918911342,0.15866342810388068,0.0531405772333482,0.014858195885877532,0.10566467870255014,
0.3287662417928132,0.04922204635291836,0.04297934007130877,0.02961436998926764,0.1585347404135103,0.053292795610539616,0.01490560890854883,0.1060708000638364,
0.3295603631498025,0.049277213282088735,0.04281628865831421,0.02959674722405464,0.15839882961302157,0.053443267039434646,0.014952402234330186,0.10647169864141849,
0.3303544845067883,0.04932853003092565,0.042654803456864274,0.02957926482548301,0.15825576018147372,0.053591953015813536,0.014998559918683145,0.10686721235564957,
0.3311486058637776,0.049375967098657256,0.04249490375817191,0.029561937772602003,0.15810559828081425,0.053738815842855725,0.015044066137422357,0.10725718065419855,
0.33194272722076335,0.04941949678818077,0.04233660803078841,0.029544780818772237,0.15794841174445703,0.05388381865553397,0.015088905195541387,0.10764144462033863,
0.33273684857775265,0.04945909322350043,0.04217993392962478,0.029527808489244287,0.1577842700662317,0.05402692544461631,0.015133061536068767,0.10801984708110228,
0.3335309699347384,0.04949473236601169,0.04202489830525122,0.029511035078843034,0.1576132443896927,0.05416810108025827,0.015176519748947933,0.1083922327152241,
0.3343250912917277,0.04952639202962088,0.04187151721346242,0.029494474649757383,0.1574354074977762,0.05430731133516781,0.015219264579934692,0.10875844816079243,
0.33511921264871347,0.049554051894690046,0.041719805925096436,0.02947814102943488,0.15725083380278973,0.054444522907325224,0.015261280939505666,0.1091183421225298,
0.3359133340057028,0.049577693520798424,0.041569778936094925,0.029462047808580777,0.15705959933671965,0.05457970344224075,0.015302553911771058,0.10947176547862163,
0.33670745536268853,0.04959730035831236,0.0414214499777926,0.029446208339260652,0.15686178174183787,0.054712821554731984,0.01534306876338493,0.10981857138701147,
0.33750157671967784,0.04961285775875697,0.04127483202742384,0.029430635733105868,0.15665746026158814,0.054843846850203666,0.015382810952446098,0.11015861539108135,
0.3382956980766636,0.049624352983983294,0.041129937318834256,0.0294153428596208,0.15644671573173083,0.054972749945412236,0.0154217661373826,0.11049175552463403,
0.3390898194336529,0.04963177521412644,0.040986777353385816,0.029400342344590647,0.15622963057172318,0.055099502488697806,0.015459920185812652,0.11081785241609443,
0.33988394079063866,0.0496351155543504,0.04084536291104304,0.0293856465685887,0.15600628877631004,0.05522407717966578,0.015497259183374792,0.11113676939184668,
0.34067806214762797,0.049634367040376555,0.040705704061629065,0.029371267665581516,0.15577677590729888,0.05534644778830111,0.015533769442519902,0.11144837257862253,
0.3414721835046137,0.04962952464279358,0.0405678101762393,0.029357217521630837,0.15554117908549164,0.055466589173498025,0.015569437511257752,0.11175253100485714,
0.34226630486160303,0.04962058527014751,0.04043168993880139,0.02934350777369037,0.15529958698274354,0.0555844773009881,0.015604250181850542,0.11204911670092743,
0.3430604262185888,0.04960754777081153,0.04029735135776971,0.02933014980849605,0.15505208981411828,0.05570008926064984,0.015638194499445982,0.11233800479818871,
0.3438545475755781,0.04959041293363593,0.04016480177794286,0.029317154761548038,0.15479877933010758,0.05581340328318322,0.015671257770642218,0.11261907362672481,
0.34464866893256385,0.049569183487379744,0.0400340478923926,0.02930453351618258,0.15453974880888105,0.05592439875613263,0.015703427571977017,0.11289220481172743,
0.34544279028955316,0.04954386409892617,0.03990509575449275,0.029292296702732066,0.15427509304853163,0.05603305623924223,0.015734691758333537,0.11315728336842068,
0.3462369116465389,0.0495144613702848,0.03977795079003664,0.029280454697771175,0.15400490835928102,0.05613935747912756,0.015765038471254975,0.11341419779544624,
0.34703103300352467,0.049480983834384505,0.03965261780943182,0.02926901762344742,0.15372929255560822,0.05624328542324835,0.015794456147160484,0.11366284016662642,
0.347825154360514,0.04944344194966198,0.03952910101996053,0.029257995346893738,0.15344834494826218,0.056344824233167105,0.01582293352545468,0.11390310622102195,
0.34861927571749973,0.04940184809345159,0.03940740403809481,0.029247397479721386,0.15316216633611962,0.056443959297078655,0.015850459656523066,0.1141348954512025,
0.34941339707448904,0.04935621655418292,0.03928752990185488,0.029237233377590745,0.15287085899784852,0.056540677241596504,0.015877023909605922,0.11435811118964836,
0.3502075184314748,0.04930656352239319,0.039169481083199544,0.02922751213985794,0.15257452668333557,0.05663496594278181,0.015902615980543034,0.11457266069320321,
0.3510016397884641,0.04925290708056277,0.03905325950043761,0.02921824260929494,0.15227327460483708,0.05672681453640203,0.015927225899381916,0.11477845522549852,
0.35179576114544986,0.049195267191782785,0.03893886653064904,0.029209433371881144,0.1519672094278112,0.056816213427406274,0.015950844037842183,0.1149754101372713,
0.35258988250243917,0.049133665687264474,0.038826303022104956,0.02920109275666387,0.1516564392613884,0.0569031542986051,0.015973461116628836,0.1151634449444989,
0.3533840038594249,0.04906812625270088,0.038715569306675336,0.02919322883568552,0.1513410736484385,0.05698763011854334,0.015995068212587366,0.11534248340427472,
0.35417812521641423,0.04899867441349225,0.038606665212213544,0.029185849423975056,0.1510212235551908,0.05706963514855465,0.016015656765693692,0.11551245358835162,
0.3549722465734,0.04892533751884714,0.03849959007490685,0.029178962079601505,0.15069700136036454,0.05714916494898798,0.01603521858587217,0.11567328795427957,
0.3557663679303893,0.048848144724772266,0.03839434275158201,0.029172574103787013,0.15036852084376703,0.05722621638459599,0.016053745859634948,0.11582492341406739,
0.35656048928737505,0.048767126975964796,0.03829092163195527,0.029166692541077146,0.15003589717431753,0.057300787629076665,0.01607123115653611,0.11596730140029891,
0.35735461064436436,0.04868231698662128,0.03818932465081634,0.02916132417956599,0.14969924689745392,0.05737287816875999,0.0160876674354344,0.11610036792963692,
0.3581487320013501,0.048593749220178624,0.03808954930013572,0.0291564755511737,0.14935868792188037,0.05744248880543236,0.016103048050558233,0.11622407366364873,
0.3589428533583394,0.048501459868002805,0.03799159264108507,0.02915215293197411,0.14901433950561524,0.057509621658292195,0.016117366757367163,0.11633837396688992,
0.3597369747153252,0.04840548682704232,0.037895451315960504,0.02914836234257006,0.14866632224129953,0.05757428016503079,0.016130617718204055,0.11644322896218522,
0.3605310960723145,0.04830586967646359,0.037801121559998575,0.029145109548514177,0.14831475804072508,0.05763646908203355,0.01614279550773242,0.11653860358304712,
0.36132521742930024,0.048202649653286155,0.03770859921307539,0.029142400060772778,0.14795977011854514,0.05769619448369746,0.016153895118153704,0.11662446762317567,
0.36211933878628955,0.04809586962703677,0.037617879731278864,0.029140239136230678,0.14760148297513037,0.05775346376086155,0.01616391196419948,0.11670079578298498,
0.3629134601432753,0.04798557407344165,0.03752895819834478,0.029138631778234603,0.1472400223785345,0.057808285618347915,0.01617284188789385,0.1167675677131043,
0.3637075815002646,0.04787180904717692,0.03744182933694732,0.029137582737173224,0.14687551534553564,0.05786067007161193,0.016180681163081495,0.11682476805480513,
0.36450170285725036,0.04775462215369835,0.037356487519834995,0.029137096511091726,0.1465080901217204,0.05791062844250158,0.016187426499717265,0.11687238647730754,
0.3652958242142397,0.0476340625201716,0.0372729267808032,0.029137177346338885,0.1461378761605804,0.05795817335412613,0.01619307504791327,0.1169104177119225,
0.36608994557122543,0.0475101807655255,0.037191140825494844,0.029137829238244924,0.14576500410159124,0.05800331872483571,0.016197624401739833,0.11693886158298986,
0.36688406692821474,0.04738302896965091,0.03711112304202084,0.029139055931828216,0.1453896057472476,0.058046079761314796,0.01620107260277696,0.1169577230355743,
0.3676781882852005,0.04725266064176884,0.03703286651139245,0.029140860922529377,0.14501181403902816,0.05808647295079309,0.016203418143413122,0.11696701215988496,
0.3684723096421898,0.04711913068799226,0.03695636401775769,0.02914324745697118,0.14463176303226732,0.05812451605237875,0.01620465996988849,0.11696674421238737,
0.36926643099917555,0.0469824953781061,0.036881608058434504,0.029146218533742954,0.1442495878699121,0.05816022808751972,0.016204797485080084,0.1169569396335803,
0.3700605523561613,0.04684281231159138,0.0368085908537335,0.02914977690420817,0.14386542475514486,0.05819362932960022,0.016203830551026536,0.1169376240624121,
0.3708546737131506,0.04670014038291963,0.03673730435656368,0.029153925073334332,0.1434794109228541,0.05822474129268014,0.01620175949119044,0.11690882834731592,
0.3716487950701364,0.046554539746144374,0.03666774026181452,0.029158665300544218,0.1430916846099389,0.0582535867193865,0.01619858509245651,0.11687058855384486,
0.3724429164271257,0.04640607177881751,0.036599890015508375,0.029163999600587763,0.14270238502443433,0.0582801895679664,0.016194308606864112,0.11682294596889256,
0.37323703778411144,0.04625479904525854,0.03653374482371753,0.0291699297444342,0.14231165231344753,0.058304574998512826,0.016188931753072976,0.11676594710148776,
0.37403115914110074,0.046100785259205544,0.03646929566124047,0.02917645726018413,0.14191962752989606,0.05832676935837454,0.016182456717561213,0.11669964368015465,
0.3748252804980865,0.0459440952458773,0.03640653328003223,0.029183583434001556,0.1415264525980432,0.05834680016676304,0.016174886155555054,0.11662409264683368,
0.3756194018550758,0.0457847949034763,0.036345448217384384,0.029191309311065873,0.14113227027782682,0.05836469609856994,0.016166223191689876,0.11653935614736147,
0.37641352321206156,0.04562295116416341,0.03628603080385037,0.029199635696544372,0.14073722412798081,0.0583804869674091,0.016156471420402593,0.11644550151851155,
0.37720764456905087,0.04545863195453477,0.03622827117091233,0.02920856315658577,0.14034145846795043,0.05839420370789838,0.016145634906055487,0.11634260127160076,
0.3780017659260366,0.04529190615563259,0.036172159258386016,0.029218092019335548,0.13994511833860465,0.05840587835719675,0.016133718182792044,0.1162307330726688,
0.37879588728302593,0.04512284356252135,0.036117684821560796,0.029228222375974146,0.1395483494617512,0.05841554403581343,0.016120726254125372,0.11610997971924229,
0.3795900086400117,0.04495151484346171,0.0360648374380721,0.029238954081779015,0.13915129819846092,0.058423234927705806,0.016106664592260157,0.11598042911369694,
0.380384129997001,0.0447779914987146,0.03601360651450409,0.029250286757212186,0.1387541115062113,0.058428986259683804,0.01609153913714929,0.11584217423323444,
0.38117825135398675,0.04460234581900821,0.03596398129272085,0.02926221978903467,0.13835693689486003,0.058432834280138915,0.016075356295286444,0.115695313096494,
0.38197237271097606,0.044424650843700834,0.03591595085592488,0.029274752331449626,0.1379599223814614,0.058434816237116445,0.016058122938236156,0.115539948726821,
0.3827664940679618,0.0442449803186729,0.03586950413444175,0.029287883307276164,0.13756321644393982,0.05843497035575029,0.016039846400903154,0.11537618911221705,
0.3835606154249511,0.044063408653981166,0.035824629911230706,0.029301611409155978,0.1371669679736374,0.05843333581507966,0.016020534479542783,0.11520414716199974,
0.3843547367819369,0.04388001088130875,0.03578131682712113,0.0293159351007951,0.13677132622675275,0.05842995272426743,0.016000195429514617,0.1150239406602018,
0.3851488581389262,0.043694862611243904,0.0357395533857754,0.029330852618243274,0.13637644077469047,0.05842486209824054,0.01597883796278143,0.1148356922157424,
0.38594297949591194,0.04350803999042117,0.03569932795837891,0.029346361971213715,0.13598246145334275,0.05841810583277238,0.015956471245155944,0.11463952920940577,
0.38673710085290125,0.04331961965855794,0.03566062878805874,0.02936246094444596,0.13558953831132545,0.05840972667902832,0.015933104893297953,0.11443558373766398,
0.387531222209887,0.04312967870541964,0.03562344399403262,0.029379147099114846,0.13519782155719204,0.058399768217595155,0.01590874897146444,0.11422399255338425,
0.3883253435668763,0.04293829462774641,0.035587761575490325,0.029396417774288645,0.1348074615056507,0.05838827483201542,0.015883413988015554,0.1140048970034622,
0.38911946492386207,0.04274554528617416,0.03555356941521031,0.02941427008843954,0.1344186085228108,0.0583752916818478,0.015857110891679373,0.11377844296342517,
0.3899135862808514,0.04255150886218209,0.03552085528291444,0.02943270094100977,0.13403141297048654,0.058360864675274925,0.015829851067578556,0.11354478076905182,
0.39070770763783713,0.04235626381509925,0.03548960683836439,0.02945170701403675,0.13364602514958607,0.05834504044128002,0.01580164633302199,0.11330406514505502,
0.39150182899482644,0.042159888839201604,0.03545981163420373,0.02947128477384055,0.1332625952426152,0.058327866301413914,0.015772508933064797,0.11305645513087902,
0.3922959503518122,0.041962462820931565,0.035431457118549656,0.029491430472777278,0.1328812732553265,0.05830939024117409,0.01574245153584001,0.11280211400366136,
0.39309007170879795,0.04176406479627082,0.03540453063733929,0.029512140151061808,0.1325022089575452,0.05828966088101745,0.01571148722766538,0.11254120919841336,
0.39388419306578726,0.0415647739082972,0.03537901943643563,0.02953340963866338,0.13212555182320407,0.058268727447028185,0.015679629507928852,0.11227391222547324,
0.394678314422773,0.04136466936495564,0.035354910663498655,0.029555234557277574,0.13175145096962101,0.05824663974126276,0.01564689228375625,0.11200039858528849,
0.3954724357797623,0.04116383039707309,0.035332191369627404,0.029577610322378083,0.13138005509605233,0.0582234481117935,0.015613289864464844,0.11172084768058446,
0.3962665571367481,0.040962336216646446,0.03531084851077928,0.029600532145351733,0.13101151242155684,0.058199203422472694,0.015578836955806464,0.11143544272597854,
0.3970606784937374,0.0407602659754322,0.035290868948973354,0.029623995035720156,0.1306459706222061,0.05817395702243882,0.015543548654003899,0.11114437065509913,
0.39785479985072314,0.040557698723865415,0.03527223945328463,0.029647993803451386,0.13028357676767774,0.05814776071538659,0.015507440439584358,0.11084782202527182,
0.39864892120771245,0.04035471337033577,0.035254946700636676,0.02967252306136466,0.12992447725726813,0.05812066672862241,0.015470528171013775,0.11054599091983387,
0.3994430425646982,0.04015138864084704,0.035238977276400456,0.02969757722763149,0.12956881775536294,0.05809272768192695,0.015432828078135799,0.11023907484814124,
0.4002371639216875,0.03994780303908622,0.03522431767480738,0.029723150528375934,0.12921674312640294,0.058063996556246215,0.015394356755419345,0.10992727464333188,
0.40103128527867327,0.03974403480692753,0.03521095429918502,0.029749237000377002,0.12886839736938546,0.05803452666223284,0.015355131155018655,0.10961079435791127,
0.4018254066356626,0.03954016188539571,0.03519887346202425,0.029775830493875752,0.12852392355194078,0.058004371608658976,0.015315168579649673,0.10928984115722624,
0.40261952799264833,0.03933626187611252,0.03518806138488698,0.029802924675489763,0.1281834637440247,0.05797358527072221,0.015274486675286737,0.10896462521089448,
0.40341364934963764,0.03913241200324959,0.03517850419816371,0.029830513031237224,0.1278471589512686,0.05794222175826577,0.015233103423683548,0.10863535958225787,
0.4042077707066234,0.03892868907600978,0.035170187940690496,0.029858588869672853,0.1275151490480291,0.057910335383934176,0.0151910371347224,0.10830226011592882,
0.4050018920636127,0.038725169451658506,0.03516309855923551,0.02988714532513759,0.1271875727101797,0.057877980631285665,0.015148306438595681,0.1079655453234993,
0.40579601342059846,0.03852192899912592,0.035157221907865015,0.029916175361123825,0.12686456734768814,0.057845212122882114,0.015104930277823706,0.10762543626748344,
0.40659013477758776,0.03831904306319952,0.03515254374719922,0.029945671773757725,0.12654626903702462,0.0578120845883778,0.015060927899112952,0.10728215644356565,
0.4073842561345735,0.038116586429326554,0.03514904974356853,0.029975627195400083,0.12623281245344467,0.05777865283262754,0.015016318845058817,0.1069359316612264,
0.4081783774915628,0.03791463328904433,0.035146725468080536,0.030006034098366698,0.12592433080319346,0.05774497170383495,0.014971122945697107,0.10658698992281954,
0.4089724988485486,0.03771325720605608,0.03514555639560895,0.030036884798769304,0.125620955755678,0.0577110960617613,0.014925360309908367,0.10623556130117481,
0.4097666202055379,0.037512531082968925,0.035145527903714835,0.03006817146047772,0.1253228173756541,0.057677080746015755,0.014879051316679456,0.10588187781580118,
0.41056074156252365,0.037312527128709985,0.035146625271511446,0.030099886099203645,0.1250300440554777,0.05764298054444686,0.014832216606226599,0.10552617330776609,
0.41135486291951295,0.0371133168266356,0.03514883367848331,0.030132020586706467,0.12474276244746878,0.05760885016165586,0.014784877070984285,0.1051686833133277,
0.4121489842764987,0.036914970903348054,0.03515213820327082,0.03016456665512101,0.12446109739643807,0.0575747441876517,0.014737053846464421,0.10480964493639719,
0.412943105633488,0.03671755929823319,0.03515652382243132,0.03019751590140694,0.12418517187242718,0.057540717066667656,0.014688768301990248,0.1044492967199091,
0.41373722699047377,0.03652115113373181,0.03516197540918756,0.030230859791919407,0.12391510690371353,0.05750682306615944,0.014640042031309537,0.10408787851617818,
0.4145313483474631,0.03632581468635663,0.035168477732174706,0.030264589667099957,0.12365102151013173,0.05747311624600433,0.014590896843091696,0.10372563135632204,
0.41532546970444884,0.036131617358465914,0.03517601545419673,0.030298696746286668,0.12339303263676342,0.057439650427921166,0.014541354751313369,0.1033627973188295,
0.4161195910614346,0.035938625650804204,0.03518457313100303,0.030333172132642205,0.12314125508804788,0.05740647916513023,0.014491437965537318,0.1029996193973541,
0.4169137124184239,0.035746905135819504,0.035194135210096074,0.030368006818197932,0.1228958014623663,0.0573736557122727,0.014441168881089232,0.10263634136781391,
0.41770783377540965,0.03555652043176565,0.035204686029580816,0.030403191689012232,0.12265678208715246,0.0573412329956082,0.01439057006913738,0.10227320765487806,
0.41850195513239896,0.03536753517759791,0.035216209817066406,0.030438717530440428,0.12242430495458267,0.0573092635835094,0.014339664266679944,0.10191046319792103,
0.4192960764893847,0.035180012008668625,0.035228690688630666,0.030474575032513662,0.12219847565789842,0.05727779965727224,0.014288474366444983,0.10154835331652665,
0.420090197846374,0.034994012533229625,0.03524211264785767,0.03051075479542364,0.12197939732841409,0.05724689298226008,0.014237023406708025,0.10118712357562314,
0.4208843192033598,0.03480959730974653,0.03525645958495848,0.030547247335109842,0.12176717057326339,0.05721659487939986,0.01418533456103232,0.10082701965033153,
0.4216784405603491,0.03462682582502989,0.03527171527598523,0.030584043088945367,0.1215618934139364,0.05718695619704826,0.014133431127936946,0.10046828719060898,
0.42247256191733484,0.034445756473187254,0.035287863382147955,0.030621132421517337,0.12136366122565993,0.057158027283245205,0.014081336520497936,0.10011117168577012,
0.42326668327432415,0.03426644653539916,0.03530488744924413,0.03065850563049717,0.12117256667767332,0.05712985795837249,0.014029074255887702,0.09975591832896825,
0.4240608046313099,0.034088952160521956,0.035322770907209824,0.03069615295259607,0.12098869967445126,0.05710249748823423,0.013976667944858091,0.0994027718817192,
0.4248549259882992,0.03391332834651914,0.035341497069801796,0.03073406456960028,0.12081214729792468,0.0570759945575762,0.013924141281172371,0.09905197653855069,
0.42564904734528497,0.033739628922722156,0.035361049134419065,0.03077223061448071,0.1206429937507502,0.05705039724406061,0.013871518030991683,0.09870377579185977,
0.4264431687022743,0.0335679065329215,0.03538141018207266,0.030810641177570892,0.12048132030067787,0.057025752992712744,0.013818822022221393,0.09835841229706078,
0.42723729005926003,0.033398212619287534,0.03540256317751149,0.03084928631280697,0.12032720522606602,0.05700210859085545,0.01376607713382291,0.09801612773810614,
0.42803141141624934,0.03323059740712041,0.035424490969512216,0.030888156044023198,0.12018072376259178,0.0569795101435473,0.013713307285096468,0.09767716269346229,
0.4288255327732351,0.03306510989042741,0.03544717629134054,0.030927240371295923,0.12004194805120333,0.05695800304953994,0.01366053642494059,0.09734175650262308,
0.4296196541302244,0.032901797818325744,0.035470601761391156,0.0309665292773289,0.11991094708736047,0.05693763197776951,0.013607788521093754,0.09701014713324192,
0.43041377548721016,0.03274070768226803,0.03549474988401297,0.03100601273387232,0.11978778667160835,0.05691844084439699,0.01355508754936401,0.0966825710489635,
0.43120789684419947,0.03258188470408694,0.03551960305052584,0.031045680708167784,0.11967252936152761,0.05690047279041172,0.013502457482852167,0.09635926307803633,
0.4320020182011852,0.032425372824855324,0.03554514354043474,0.03108552316941108,0.11956523442510339,0.05688377015981205,0.013449922281174378,0.09604045628278603,
0.43279613955817453,0.03227121469455722,0.03557135352284718,0.03112553009522446,0.11946595779555373,0.056868374478376324,0.013397505879689757,0.09572638183002818,
0.4335902609151603,0.03211945166256484,0.03559821505809865,0.031165691478129802,0.11937475202765777,0.05685432643303747,0.013345232178738845,0.09541726886250015,
0.4343843822721496,0.03197012376891581,0.0356257100995909,0.03120599733201378,0.11929166625562061,0.05684166585187328,0.013293125032898673,0.09511334437138903,
0.43517850362913535,0.031823269736384704,0.0356538204958473,0.031246437698576202,0.11921674615251253,0.05683043168472461,0.01324120824026018,0.09481483307003342,
0.43597262498612466,0.03167892696334216,0.03568252799278905,0.031287002653752255,0.11915003389131676,0.05682066198445266,0.01318950553173381,0.09452195726887416,
0.4367667463431104,0.03153713151739452,0.03571181423623562,0.03132768231409936,0.11909156810761966,0.05681239388884607,0.013138040560389069,0.09423493675172993,
0.4375608677000997,0.0313979181297964,0.035741660774632415,0.03136846684313913,0.1190413838639756,0.05680566360318833,0.013086836890833753,0.0939539886534711,
0.4383549890570855,0.03126132019062799,0.03577204906200809,0.031409346457644864,0.11899951261597683,0.05680050638349468,0.013035917988638668,0.0936793273391642,
0.4391491104140748,0.03112736974472859,0.035802960461163734,0.03145031143386479,0.11896598218005734,0.05679695652042791,0.012985307209813538,0.09341116428475937,
0.43994323177106054,0.0309960974883774,0.03583437624709535,0.03149135211367141,0.11894081670305798,0.05679504732390117,0.01293502779033981,0.09314970795938939,
0.4407373531280463,0.030867532766711905,0.035866277610651184,0.031532458910626886,0.11892403663357921,0.05679481110837536,0.012885102835766037,0.09289516370934997,
0.4415314744850356,0.03074170357187399,0.035898645662424296,0.03157362231595479,0.11891565869514578,0.0567962791788582,0.012835555310871489,0.09264773364382763,
0.44232559584202136,0.030618636541873658,0.03593146143688109,0.03161483290440838,0.11891569586120619,0.056799481817611346,0.012786408029403486,0.09240761652244102,
0.44311971719901067,0.030498356960159193,0.035964705896725783,0.03165608134002559,0.11892415733198904,0.056804448271570766,0.012737683643894104,0.09217500764465927,
0.4439138385559964,0.030380888755883073,0.03599835993749987,0.03169735838176106,0.11894104851323609,0.056811206740485364,0.01268940463556172,0.09195009874115906,
0.44470795991298573,0.030266254504851785,0.036032404392416055,0.031738654888985536,0.1189663709968311,0.05681978436577792,0.012641593304302735,0.09173307786718096,
0.4455020812699715,0.03015447543114779,0.036066820037425056,0.031779961826843214,0.11900012254334212,0.05683020722013157,0.012594271758778914,0.09152412929794379,
0.4462962026269608,0.030045571409411352,0.03610158759651343,0.03182127027145766,0.11904229706649294,0.056842500297804695,0.012547461906605585,0.09132343342617343,
0.44709032398394655,0.02993956096776961,0.03613668774723044,0.03186257141497739,0.11909288461957974,0.05685668750567564,0.012501185444645901,0.09113116666180111,
0.44788444534093586,0.029836461291400156,0.03617210112644072,0.03190385657045203,0.11915187138384567,0.056872791655018774,0.012455463849416277,0.09094750133388377,
0.4486785666979216,0.02973628822671592,0.03620780833630008,0.03194511717653072,0.11921923965882655,0.05689083445401229,0.012410318367608045,0.09077260559479776,
0.4494726880549109,0.029639056286158098,0.036243789950450564,0.031986344801974376,0.11929496785467891,0.05691083650097729,0.012365770006730207,0.09060664332675518,
0.4502668094118967,0.029544778653583445,0.0362800265204308,0.03202753114997383,0.1193790304865,0.056932817278347383,0.012321839525878108,0.09044977405069,
0.451060930768886,0.029453467190232244,0.03631649858229701,0.032068668062266284,0.11947139817064932,0.056956795147367,0.012278547426632756,0.09030215283755912,
0.45185505212587174,0.029365132441262987,0.0363531866634497,0.03210974752304286,0.11957203762307879,0.05698278734351626,0.012235913944095369,0.09016393022210215,
0.45264917348286104,0.02927978364283958,0.036390071289660646,0.03215076166264031,0.11968091165967928,0.05701080997265948,0.01219395903806161,0.09003525211910127,
0.4534432948398468,0.029197428729757117,0.03642713299229405,0.03219170276101066,0.11979797919864825,0.05704087800791391,0.012152702384339902,0.08991625974218062,
0.4542374161968361,0.0291180743435916,0.03646435231571583,0.03223256325096235,0.11992319526488353,0.05707300528723469,0.012112163366218036,0.08980708952518301,
0.45503153755382186,0.029041725841359493,0.03650170982488399,0.03227333572116757,0.12005651099640657,0.057107204511711696,0.01207236106608216,0.0897078730461597,
0.45582565891081117,0.028968387304672417,0.03653918611311302,0.032314012918930324,0.12019787365281738,0.05714348724457297,0.01203331425719213,0.08961873695400735,
0.4566197802677969,0.028898061549372456,0.036576761810004535,0.032354587752710634,0.12034722662578226,0.05718186391088937,0.01199504139561702,0.08953980289778435,
0.45741390162478623,0.028830750135633687,0.036614417589536166,0.032395053294400504,0.12050450945155468,0.05722234379797422,0.011957560612334498,0.08947118745873672,
0.458208022981772,0.02876645337851511,0.03665213417830037,0.032435402781347676,0.12066965782552835,0.057264935056471546,0.011920889705497595,0.08941300208506192,
0.4590021443387613,0.02870517035895065,0.036689892363884286,0.03247562961812382,0.12084260361882038,0.05730964470212588,0.011885046132872163,0.08936535302943736,
0.45979626569574705,0.028646898935161685,0.0367276730033814,0.032515727378034084,0.12102327489688146,0.05735647861822588,0.011850047004448284,0.08932834128933849,
0.46059038705273636,0.02859163575447757,0.03676545703202559,0.03255568980436568,0.12121159594012831,0.057405441558713896,0.011815909075228656,0.08930206255016933,
0.4613845084097221,0.028539376265549796,0.03680322547193763,0.03259551081137326,0.1214074872665939,0.05745653715195303,0.011782648738196826,0.08928660713122714,
0.4621786297667114,0.02849011473094547,0.03684095944097408,0.032635184484999816,0.12161086565658774,0.057509767905142645,0.011750282017467976,0.08928205993452039,
0.4629727511236972,0.0284438442401059,0.03687864016166797,0.03267470508333178,0.12182164417935921,0.057565135209372946,0.011718824561624876,0.08928850039645804,
0.46376687248068293,0.028400556722656015,0.03691624897025043,0.03271406703678787,0.12203973222175454,0.05762263934530849,0.011688291637241364,0.08930600244242595,
0.46456099383767224,0.028360242962050933,0.03695376732574251,0.03275326494804166,0.12226503551885759,0.057682279489490486,0.011658698122595533,0.0893346344442644,
0.465355115194658,0.028322892609545607,0.036991176819105666,0.03279229359167811,0.12249745618660353,0.057744053721246975,0.011630058501574725,0.08937445918065998,
0.4661492365516473,0.028288494198473787,0.03702845918243946,0.032831147913585046,0.1227368927563534,0.057807959030199745,0.011602386857774254,0.08942553380046148,
0.46694335790863306,0.028257035158822965,0.037065596298214716,0.03286982303008115,0.12298324021141578,0.057873991324356173,0.011575696868791611,0.08948790978892988,
0.46773747926562237,0.028228501832091805,0.03710257020853023,0.03290831422678194,0.12323639002550123,0.057942145438774253,0.01155000180071774,0.08956163293692926,
0.4685316006226081,0.02820287948641693,0.03713936312438105,0.03294661695720646,0.12349623020309365,0.0580124151447881,0.011525314502826865,0.08964674331306438,
0.46932572197959743,0.028180152331956056,0.0371759574349259,0.03298472684112734,0.1237626453217223,0.058084793159781545,0.01150164740246616,0.08974327523876904,
0.4701198433365832,0.028160303536514844,0.037212335716741735,0.033022639662667656,0.12403551657611574,0.05815927115749654,0.011479012500146454,0.08985125726634761,
0.4709139646935725,0.02814331524140505,0.0372484807430526,0.03306035136814829,0.124314721824219,0.05823583977886318,0.011457421364835059,0.08997071215997073,
0.47170808605055825,0.028129168577521648,0.03728437549292071,0.03309785806368995,0.12460013563505412,0.05831448864333752,0.011436885129451596,0.09010165687962424,
0.47250220740754756,0.028117843681627102,0.037320003160386875,0.033135156012574524,0.12489162933840245,0.05839520636073357,0.01141741448656767,0.09024410256800974,
0.4732963287645333,0.02810931971283129,0.037355347163547985,0.03317224163237089,0.12518907107628688,0.05847798054353529,0.01139901968431105,0.09039805454039276,
0.4740904501215226,0.028103574869255705,0.03739039115355886,0.0332091114918305,0.1254923258562302,0.05856279781967441,0.011381710522475011,0.09056351227739386,
0.4748845714785084,0.028100586404870998,0.03742511902354606,0.03324576230755877,0.12580125560626565,0.0586496438457598,0.011365496348833238,0.09074046942071656,
0.4756786928354977,0.028100330646497387,0.03745951491742106,0.03328219094046856,0.1261157192316739,0.05873850332074394,0.01135038605566076,0.09092891377180459,
0.47647281419248344,0.028102783010957526,0.03749356323858045,0.033318394392022194,0.12643557267342165,0.05882936000001198,0.01133638807646113,0.09112882729342013,
0.47726693554947275,0.028107918022371944,0.03752724865848064,0.033354369800269214,0.12676066896827393,0.05892219670987867,0.01132351038290011,0.09134018611413361,
0.4780610569064585,0.028115709329587606,0.03756055612507496,0.03339011443568703,0.12709085831055314,0.05901699536247889,0.011311760481945864,0.09156296053571421,
0.4788551782634478,0.02812612972373019,0.037593470871100695,0.03342562569683219,0.127425988115516,0.05911373697103684,0.011301145413215795,0.09179711504340984,
0.47964929962043357,0.02813915115587112,0.037625978422204095,0.03346090110581013,0.1277659030843205,0.05921240166549987,0.011291671746529862,0.09204260831910406,
0.4804434209774229,0.028154744754800752,0.03765806460489123,0.03349593830357142,0.12811044527055215,0.059312968708521874,0.011283345579670303,0.09229939325733688,
0.48123754233440863,0.0281728808448994,0.03768971555429271,0.033530735045042934,0.1284594541482808,0.059415416511782324,0.011276172536347525,0.09256741698417535,
0.48203166369139794,0.028193528964098023,0.037720917721730786,0.0335652891941027,0.12881276668161706,0.059519722652626506,0.011270157764371914,0.09284662087891979,
0.4828257850483837,0.02821665788192097,0.03775165788207725,0.0335995987184071,0.12917021739573753,0.05962586389101266,0.011265305934031187,0.09313694059862981,
0.483619906405373,0.02824223561760301,0.037781923140890454,0.033633661684079434,0.12953163844934654,0.059733816186752386,0.011261621236672837,0.09343830610545478,
0.48441402776235876,0.028270229458273583,0.037811700941320595,0.0336674762502689,0.12989685970854392,0.05984355471703027,0.011259107383491227,0.09375064169675201,
0.48520814911934806,0.02830060597720118,0.037840979070772066,0.03370104066358934,0.13026570882206542,0.059955053894189286,0.011257767604518729,0.09407386603797611,
0.4860022704763338,0.028333331052091307,0.037869745667312285,0.033734353252447065,0.13063801129786365,0.06006828738376868,0.011257604647820219,0.0944078921983217,
0.4867963918333196,0.028368369883431277,0.03789798922581663,0.033767412421267455,0.1310135905809964,0.06018322812278119,0.011258620778890284,0.09475262768910178,
0.4875905131903089,0.028405687012875838,0.03792569860383935,0.03380021664462988,0.13139226813278806,0.060299848338217006,0.011260817780252261,0.0951079745048429,
0.48838463454729464,0.02844524634166758,0.03795286302720066,0.033832764461320504,0.13177386351122994,0.0604181195657614,0.011264196951258191,0.0954738291670784,
0.48917875590428395,0.028487011149086628,0.03797947209528069,0.033865054468312956,0.13215819445258473,0.06053801266871429,0.011268759108088734,0.0958500827708199,
0.4899728772612697,0.028530944110923922,0.03800551578601106,0.03389708531468666,0.13254507695415974,0.060659497857099474,0.011274504583951907,0.09623662103368637,
0.490766998618259,0.02857700731797325,0.03803098446055575,0.03392885569549271,0.132934325358213,0.06078254470695183,0.011281433229479497,0.09663332434767012,
0.49156111997524476,0.02862516229453701,0.03805586886767282,0.03396036434557723,0.13332575243695508,0.060907122179770935,0.011289544413319884,0.09704006783351733,
0.4923552413322341,0.028675370016941003,0.03808016014774924,0.033991610033372074,0.13371916947860893,0.06103319864213002,0.011298837022925874,0.09745672139770148,
0.49314936268921983,0.028727590932054087,0.03810384983650145,0.034022591554662945,0.13411438637449036,0.06116074188542911,0.011309309465536089,0.09788314979196631,
0.49394348404620914,0.02878178497580841,0.03812692986833487,0.034053307726344975,0.13451121170706962,0.061289719145781525,0.011320959669348363,0.09831921267541426,
0.4947376054031949,0.02883791159171651,0.03814939257935595,0.034083757380175626,0.1349094528389737,0.061420097124023354,0.01133378508488345,0.09876476467911596,
0.4955317267601842,0.02889592974938162,0.03817123071003102,0.034113939356534916,0.13530891600288963,0.06155184200583556,0.011347782686537375,0.09921965547321569,
0.49632584811716995,0.028955797962997815,0.03819243740748667,0.03414385249820264,0.1357094063923253,0.06168491948196855,0.011362948974320481,0.09968372983650617,
0.49711996947415926,0.02901747430983697,0.03821300622744665,0.034173495644162645,0.1361107282531861,0.061819294768559706,0.011379279975781323,0.10015682772844635,
0.497914090831145,0.0290809164487195,0.038232931135801354,0.03420286762344363,0.13651268497612273,0.06195493262753394,0.011396771248113273,0.10063878436359405,
0.4987082121881343,0.029146081638466357,0.038252206509806284,0.03423196724900625,0.1369150791896046,0.06209179738707834,0.011415417880441807,0.10112943028842508,
0.4995023335451201,0.029212926756329954,0.03827082713890637,0.03426079331168592,0.1373177128536735,0.06222985296218131,0.011435214496290187,0.10162859146050927,
0.5002964549021094,0.029281408316401723,0.03828878822518381,0.03428934457420078,0.13772038735432957,0.06236906287522766,0.01145615525622133,0.10213608933001364,
0.5010905762590951,0.029351482487994417,0.03830608538342761,0.03431761976523428,0.13812290359850105,0.06250939027664068,0.011478233860653457,0.10265174092350098,
0.5018846976160845,0.02942310511399745,0.038322714640823714,0.034345617573601404,0.1385250621095483,0.06265079796556314,0.011501443552847095,0.10317535892999236,
0.5026788189730702,0.029496231729203407,0.038338672436265105,0.03437333664250781,0.1389266631232514,0.06279324841056862,0.011525777122060972,0.10370675178926007,
0.5034729403300595,0.029570817578604542,0.03835395561928216,0.034400775563910885,0.13932750668422983,0.06293670377039547,0.011551226906874231,0.10424572378231747,
0.5042670616870453,0.029646817635657855,0.038368561448594116,0.0344279328729916,0.13972739274274115,0.06308112591469572,0.01157778479867236,0.10479207512407043,
0.5050611830440346,0.02972418662051762,0.03838248759028296,0.03445480704274585,0.14012612125180526,0.0632264764447912,0.011605442245294213,0.10534560205809489,
0.5058553044010203,0.029802879018234335,0.03839573211559206,0.03448139647870383,0.1405234922645999,0.06337271671442972,0.011634190254837477,0.10590609695350313,
0.5066494257580096,0.02988284909691915,0.038408293498352106,0.034507699513786225,0.14091930603207192,0.06351980785053432,0.011664019399619774,0.10647334840386107,
0.5074435471149954,0.029964050925872978,0.03842017061203825,0.034533714403305396,0.14131336310070852,0.06366771077393872,0.011694919820292684,0.10704714132811667,
0.5082376684719847,0.030046438393679535,0.038431362726462144,0.03455943932011988,0.1417054644104119,0.06381638622010248,0.011726881230105866,0.10762725707349965,
0.5090317898289705,0.030129965226261643,0.038441869504103644,0.03458487234995023,0.14209541139241924,0.06396579475979984,0.011759892919318476,0.10821347352035038,
0.5098259111859598,0.030214585004900284,0.03845169099608757,0.034610011486864115,0.14248300606721107,0.06411589681977609,0.011793943759754998,0.10880556518883493,
0.5106200325429455,0.03030025118421568,0.03846082763781106,0.034634854628938325,0.1428680511423491,0.06426665270336579,0.011829022209502585,0.10940330334750221,
0.5114141538999313,0.030386917110110132,0.03846928024422823,0.0346593995741051,0.14325035011018497,0.0644180226110674,0.011865116317747046,0.11000645612363762,
0.5122082752569206,0.03047453603767191,0.03847705000479871,0.03468364401619003,0.14362970734538097,0.0645699666610689,0.01190221372974455,0.11061478861536586,
0.5130023966139063,0.03056306114903996,0.03848413847810731,0.03470758554114865,0.14400592820218305,0.06472244490971968,0.011940301691926124,0.11122806300545537,
0.5137965179708956,0.03065244557122888,0.038490547586162646,0.034731221623508314,0.1443788191113869,0.06487541737194376,0.011979367057131977,0.11184603867677408,
0.5145906393278814,0.030742642393913663,0.038496279608382665,0.03475454962302188,0.14474818767693712,0.06502884404158968,0.012019396289972718,0.11246847232934527,
0.5153847606848707,0.03083360468717378,0.03850133717527572,0.03477756678153948,0.14511384277210024,0.06518268491171274,0.012060375472314519,0.11309511809895219,
0.5161788820418565,0.03092528551919614,0.03850572326182585,0.03480027022010399,0.14547559463515214,0.06533689999478504,0.012102290308885273,0.11372572767723635,
0.5169730033988458,0.031017637973936207,0.03850944118059159,0.034822656936276036,0.14583325496451996,0.06549144934282941,0.012145126132998799,0.11436005043323524,
0.5177671247558315,0.031110615168736717,0.0385124945745275,0.03484472380169376,0.14618663701332063,0.06564629306747286,0.012188867912394067,0.11499783353630275,
0.5185612461128208,0.031204170271903347,0.038514887409538186,0.03486646755987217,0.1465355556832367,0.06580139135991567,0.012233500255186562,0.11563882208035449,
0.5193553674698066,0.03129825652023659,0.03851662396677462,0.03488788482424676,0.14687982761767074,0.06595670451081226,0.012279007415928654,0.11628275920937896,
0.5201494888267959,0.031392827236518844,0.038517708834683126,0.03490897207646578,0.14721927129412116,0.06611219293005963,0.01232537330177609,0.11692938624415347,
0.5209436101837817,0.03148783584695604,0.03851814690081709,0.03492972566493496,0.14755370711572238,0.06626781716648973,0.01237258147875746,0.11757844281010368,
0.521737731540771,0.03158323589857257,0.03851794334342211,0.03495014180361863,0.1478829575018924,0.06642353792746186,0.012420615178143739,0.11822966696624274,
0.5225318528977567,0.031678981076558456,0.03851710362280524,0.034970216571100256,0.1482068469780331,0.06657931609835066,0.012469457302914771,0.118882795335126,
0.523325974254746,0.03177502522156756,0.03851563347249939,0.034989945909905826,0.14852520226422716,0.06673511276192623,0.012519090434319653,0.11953756323375497,
0.5241200956117318,0.03187132234696543,0.03851353889023385,0.035009325626092505,0.14883785236287825,0.06689088921762179,0.012569496838527969,0.1201937048053633,
0.5249142169687211,0.03196782665602542,0.038510826128722246,0.035028351389105324,0.14914462864524106,0.06704660700068472,0.012620658473368813,0.12085095315201606,
0.5257083383257068,0.03206449255907142,0.0385075016862792,0.035047018731903884,0.14944536493678934,0.0672022279012065,0.012672556995154514,0.12150904046795274,
0.5265024596826962,0.03216127469056535,0.038503572297277563,0.03506532305136097,0.14973989760137033,0.06735771398302676,0.012725173765586078,0.12216769817360251,
0.5272965810396819,0.03225812792613772,0.038499044922457586,0.035083259608934846,0.15002806562409593,0.0675130276025066,0.01277848985873724,0.12282665705020045,
0.5280907023966712,0.03235500739955893,0.03849392673910002,0.03510082353161641,0.15030971069292107,0.06766813142716614,0.012832486068114147,0.12348564737493037,
0.528884823753657,0.03245186851964929,0.038488225131075186,0.03511800981315247,0.15058467727886185,0.06782298845418067,0.012887142913787685,0.12414439905652057,
0.5296789451106463,0.03254866698712517,0.03848194767877981,0.035134813315545764,0.15085281271480688,0.06797756202873004,0.012942440649595486,0.124802641771217,
0.530473066467632,0.03264535881137873,0.038475102148974136,0.03515122877083229,0.15111396727287607,0.06813181586219523,0.0129983592704107,0.12546010509905828,
0.5312671878246213,0.03274190032718841,0.038467696484531196,0.03516725078313613,0.15136799424028255,0.06828571405019596,0.01305487851947466,0.126116518660375,
0.5320613091816071,0.03283824821135725,0.03845973879411072,0.03518287383100177,0.15161474999365634,0.06843922109046321,0.013111977895790605,0.12677161225243633,
0.5328554305385964,0.03293435949927561,0.038451237341769834,0.0351980922700037,0.1518540940717867,0.06859230190053989,0.013169636661575798,0.12742511598616504,
0.5336495518955822,0.033030191601405155,0.038442200536522905,0.03521290033563257,0.15208588924674593,0.06874492183530259,0.013227833849769291,0.12807676042284222,
0.5344436732525679,0.0331257023196804,0.03843263692186297,0.035227292146457104,0.15231000159335395,0.0688970467042976,0.013286548271592903,0.12872627671072193,
0.5352377946095572,0.033220849863823884,0.038422555165256896,0.03524126170756069,0.1525263005569495,0.06904864278888327,0.013345758524162796,0.12937339672147677,
0.536031915966543,0.03331559286757115,0.03841196404762663,0.035254802914251045,0.15273465901943092,0.06919967685917142,0.013405442998149325,0.13001785318639333,
0.5368260373235323,0.0334098904048011,0.038400872452828486,0.03526790955604152,0.15293495336353527,0.06935011619075934,0.013465579885482805,0.13065937983223802,
0.537620158680518,0.0335037020055673,0.03838928935714265,0.035280575320901675,0.15312706353532246,0.06949992858124496,0.013526147187103064,0.131297711516712,
0.5384142800375074,0.03359698767202584,0.03837722381878489,0.03529279379977511,0.15331087310483518,0.06964908236651578,0.013587122720750654,0.13193258436341487,
0.5392084013944931,0.033689707894254524,0.03836468496745245,0.035304558491361826,0.15348626932490525,0.06979754643680375,0.013648484128797711,0.13256373589623613,
0.5400025227514824,0.03378182366595855,0.0383516819939156,0.03531586280716234,0.15365314318807927,0.06994529025249635,0.01371020888611655,0.1331909051730937,
0.5407966441084682,0.03387329650005724,0.0383382241396667,0.03532670007678025,0.15381138948163742,0.07009228385969492,0.013772274307984176,0.13381383291894,
0.5415907654654575,0.03396408844414637,0.03832432068663782,0.03533706355347992,0.15396090684068056,0.07023849790551072,0.013834657558021077,0.13443226165795327,
0.5423848868224432,0.03405416209583044,0.03830998094699848,0.03534694641999533,0.15410159779926255,0.07038390365308886,0.013897335656162553,0.1350459358448357,
0.5431790081794325,0.034143480617919,0.03829521425304443,0.03535634179458622,0.15423336883954483,0.07052847299634996,0.013960285486661103,0.13565460199513735,
0.5439731295364183,0.03423200775348084,0.03828002994718858,0.035365242737337106,0.15435613043895258,0.0706721784744392,0.014023483806118413,0.13625800881452677,
0.5447672508934076,0.034319707840750044,0.038264437372064655,0.03537364225669466,0.154469797115313,0.07081499328587172,0.014086907251545551,0.1368559073269289,
0.5455613722503934,0.03440654582787714,0.03824844586075427,0.03538153331623858,0.15457428746995588,0.07095689130236363,0.014150532348450099,0.1374480510014512,
0.5463554936073827,0.03449248728751912,0.03823206472714765,0.03538890884168079,0.15466952422875915,0.07109784708233712,0.01421433551894896,0.13803419587802052,
0.5471496149643684,0.03457749843126149,0.03821530325644836,0.035395761728087526,0.154755434281122,0.07123783588408823,0.014278293089905686,0.1386141006916529,
0.5479437363213577,0.03466154612386537,0.038198170695832034,0.03540208484731831,0.15483194871685038,0.07137683367860544,0.014342381301091152,0.1391875269952792,
0.5487378576783435,0.03474459789733282,0.03818067624526897,0.03540787105567631,0.15489900286093866,0.0715148171620268,0.014406576313366433,0.13975423928105116,
0.5495319790353328,0.0348266219647833,0.03816282904852007,0.035413113201763276,0.15495653630623388,0.07165176376772361,0.014470854216886863,0.14031400510005185,
0.5503261003923186,0.034907587234134035,0.03814463818431568,0.035417804134532695,0.15500449294396854,0.07178765167799768,0.014535191039326215,0.1408665951803366,
0.5511202217493079,0.034987463321577095,0.038126112657726335,0.03542193671153431,0.155042820992149,0.0719224598353799,0.014599562754119938,0.1414117835432308,
0.5519143431062936,0.035066220564845714,0.0381072613917342,0.03542550380734281,0.1550714730217873,0.07205616795351708,0.01466394528872643,0.14194934761781197,
0.5527084644632829,0.03514383003626256,0.03808809321901401,0.03542849832216341,0.15509040598096513,0.07218875652763415,0.014728314532905273,0.14247906835350438,
0.5535025858202687,0.03522026355556231,0.03806861687393191,0.035430913190606664,0.15509958121671735,0.072320206844559,0.014792646347011476,0.14300073033071592,
0.554296707177258,0.03529549370248098,0.038048840984769836,0.03543274139062458,0.15509896449472552,0.07245050099229662,0.014856916570304655,0.14351412186944776,
0.5550908285342437,0.03536949382910445,0.03802877406618356,0.0354339759526001,0.1550885260168107,0.07257962186913965,0.014921101029272068,0.14401903513580844,
0.555884949891233,0.0354422380719682,0.03800842451190162,0.03543460996858161,0.1550682404362153,0.0727075531923023,0.014985175545964563,0.14451526624636565,
0.5566790712482188,0.03551370136390073,0.03798780058767239,0.03543463660165391,0.15503808687066575,0.07283427950606487,0.01504911594634424,0.14500261537027023,
0.5574731926052046,0.03558385944560239,0.03796691042446612,0.035434049095437146,0.15499804891320554,0.07295978618941573,0.015112898068642801,0.14548088682908825,
0.5582673139621939,0.03565268887695207,0.03794576201193834,0.0354328407837046,0.15494811464079147,0.07308405946317768,0.015176497771729473,0.14594988919427884,
0.5590614353191796,0.03572016704803308,0.03792436319216068,0.035431005100110456,0.15488827662064328,0.07320708639660603,0.015239890943487197,0.1464094353822567,
0.5598555566761689,0.0357862721898705,0.03790272165362507,0.03542853558801815,0.15481853191434009,0.07332885491344522,0.015303053509196033,0.14685934274698015,
0.5606496780331547,0.03585098338487139,0.03788084492552668,0.03542542591042013,0.15473888207965592,0.07344935379743156,0.015365961439922377,0.14729943317000743,
0.561443799390144,0.03591428057695966,0.03785874037233074,0.03542166985993898,0.1546493331701277,0.07356857269722934,0.01542859076091275,0.1477295331479653,
0.5622379207471297,0.03597614458139695,0.03783641518862789,0.03541726136890052,0.154549895732349,0.0736865021307878,0.015490917559990729,0.1481494738773766,
0.5630320421041191,0.03603655709428135,0.03781387639428255,0.035412194519468664,0.15444058480098485,0.07380313348910678,0.015552917995955635,0.14855909133679454,
0.5638261634611048,0.036095500701715105,0.03779113082987829,0.03540646355383184,0.1543214198915018,0.07391845903939905,0.015614568306981482,0.14895822636619485,
0.5646202848180941,0.03615295888863284,0.03776818515246397,0.035400062884430775,0.1541924249906088,0.07403247192763776,0.015675844819014614,0.1493467247435776,
0.5654144061750799,0.03620891604728174,0.037745045831603735,0.03539298710421688,0.15405362854440513,0.07414516618047706,0.015736723954168412,0.1497244372587331,
0.5662085275320692,0.03626335748534483,0.03772171914573399,0.03538523099693063,0.15390506344423227,0.07425653670653534,0.015797182239113333,0.1500912197841288,
0.5670026488890549,0.03631626943369872,0.037698211178829766,0.03537678954738905,0.1537467670102281,0.07436657929702989,0.015857196313460543,0.15044693334287593,
0.5677967702460442,0.036367639053797154,0.037674527817382564,0.03536765795177109,0.15357878097258168,0.07447529062575331,0.015916742938137208,0.15079144417373763,
0.56859089160303,0.03641745444467144,0.03765067474769157,0.03535783162788995,0.15340115145048794,0.07458266824838128,0.015975799003751588,0.15112462379314107,
0.5693850129600193,0.036465704649539236,0.03762665745346956,0.03534730622544094,0.15321392892880326,0.0746887106011028,0.016034341538945864,0.15144634905416046,
0.5701791343170051,0.036512379662012824,0.03760248121376437,0.03533607763621329,0.15301716823240336,0.07479341699856414,0.016092347718734565,0.1517565022024389,
0.5709732556739944,0.036557470431898234,0.03757815110119651,0.03532414200425451,0.1528109284982467,0.07489678763111832,0.01614979487282638,0.15205497092901935,
0.5717673770309801,0.03660096887057644,0.037553671980513265,0.03531149573597551,0.1525952731451477,0.07499882356137283,0.01620666049392709,0.15234164842005887,
0.5725614983879694,0.03664286785595815,0.03752904850745882,0.0352981355101851,0.15237026984126478,0.07509952672002868,0.016262922246021275,0.15261643340339978,
0.5733556197449552,0.03668316123700346,0.03750428512795996,0.03528405828804172,0.1521359904693109,0.07519889990100499,0.0163185579726302,0.152879230191977,
0.5741497411019445,0.03672184383779814,0.03747938607762634,0.03526926132291074,0.15189251108949448,0.07529694675584413,0.016373545705043534,0.15312994872404107,
0.5749438624589303,0.03675891146117797,0.037454355381563914,0.035253742170115385,0.1516399119002013,0.07539367178739277,0.016427863670522055,0.15336850460017962,
0.5757379838159196,0.03679436089189284,0.037429196854499656,0.03523749869656957,0.15137827719642863,0.0754890803427561,0.016481490300468783,0.15359481911712297,
0.5765321051729053,0.03682818989930274,0.037403914101215394,0.03522052909028063,0.1511076953259858,0.0755831786055226,0.016534404238565625,0.15380881929831966,
0.5773262265298946,0.03686039723959721,0.03737851051728807,0.03520283186971009,0.15082825864347632,0.0756759735872582,0.016586584348872883,0.15401043792127384,
0.5781203478868804,0.036890982657530845,0.03735298929013363,0.035184405892980726,0.15054006346207935,0.07576747311826984,0.016638009723888462,0.15419961354163517,
0.5789144692438697,0.03691994688766683,0.03732735340035082,0.03516525036691814,0.15024321000314936,0.07585768583763926,0.016688659692563963,0.15437629051403684,
0.5797085906008554,0.03694729165512136,0.03730160562336153,0.03514536485591525,0.149937802343656,0.07594662118252954,0.016738513828274532,0.15454041900967844,
0.5805027119578448,0.036973019675801536,0.03727574853134323,0.03512474929060818,0.14962394836148776,0.07603428937676757,0.016787551956739453,0.15469195503065242,
0.5812968333148305,0.0369971346561298,0.03724978449544916,0.035103403976352074,0.14930175967864534,0.07612070141870768,0.016835754163890264,0.1548308604210173,
0.5820909546718163,0.037019641292248384,0.03722371568831134,0.035081329601485585,0.1489713516023538,0.07620586906838255,0.016883100803683295,0.15495710287462142,
0.5828850760288056,0.03704054526869714,0.03719754408682118,0.03505852724537296,0.14863284306412367,0.07628980483394911,0.016929572505853464,0.15507065593968475,
0.5836791973857913,0.03705985325655887,0.03717127147518232,0.035034998386212775,0.14828635655679345,0.07637252195743845,0.016975150183606104,0.15517149902014765,
0.5844733187427806,0.037077572911066184,0.03714489944822973,0.035010744908602585,0.1479320180695896,0.07645403439982072,0.017019815041243606,0.15525961737379884,
