time,DELT1,DELT3,TRIlg,TRIlat,BIClg,BICsh,BRA,
0.0,0.047530314015190554,0.10077113893130017,0.004240027783097652,0.04203214529220544,0.01909927063878631,0.0032014830376661204,0.01954808386084893,
0.0007941213569857553,0.04766477912784368,0.10132672089938587,0.0035385193070613793,0.042361309687607235,0.019354352608264045,0.0032343259584214114,0.019836027776329805,
0.0015882427139750632,0.047798070573140825,0.10187238203645625,0.00286443773456474,0.04269639369191484,0.019610358723357774,0.003267561447406627,0.02012581238283736,
0.0023823640709608185,0.04793014201942777,0.10240794161994236,0.002217576711187265,0.04303723185583289,0.019867226797592223,0.003301182086255477,0.020417366599180413,
0.0031764854279501265,0.04806094698895645,0.10293322317304951,0.0015977207112095996,0.04338365677742212,0.02012489434223542,0.003335180391295892,0.020710618729828968,
0.003970606784935882,0.04819043887795782,0.10344805452371235,0.0010046452274274564,0.0437354991967014,0.020383298599058103,0.0033695488183917593,0.021005496501365396,
0.00476472814192519,0.048318570977284266,0.1039522678619946,0.0004381169645156792,0.044092588091665746,0.02064237657335495,0.0034042797678232382,0.021301927099373945,
0.005558849498910945,0.048445296493609104,0.10444569979589269,-0.00010210596420914863,0.044454750775671084,0.020902065067204975,0.003439365589202239,0.021599837205748432,
0.0063529708558967,0.0485705685711697,0.10492819140550279,-0.0006162738367798678,0.04482181299613596,0.02116230071294824,0.003474798586419565,0.021899153036398025,
0.007147092212886008,0.048694340314040636,0.10539958829551128,-0.0011046451194766545,0.04519359903450893,0.0214230200068554,0.0035105710226202,0.02219980037933066,
0.007941213569871763,0.04881656480892211,0.1058597406459691,-0.0015674862607851833,0.04556993180744925,0.021684159342966573,0.003546675125203168,0.022501704633093367,
0.008735334926861071,0.04893719514842873,0.10630850326131072,-0.002005071482568975,0.0459506329691672,0.021945655047075425,0.0035831030908423335,0.02280479084554878,
0.009529456283846827,0.049056184454863073,0.10674573561758059,-0.0024176825686101763,0.046335523014869116,0.022207443410834277,0.003619847090524472,0.02310898375296689,
0.010323577640836135,0.04917348590445768,0.10717130190782936,-0.0028056086506732234,0.04672442138525111,0.022469460725955667,0.003656899274600936,0.02341420781941096,
0.01111769899782189,0.04928905275206888,0.10758507108564393,-0.003169145992245936,0.04711714657198465,0.022731643318485532,0.0036942517778491713,0.02372038727639642,
0.011911820354811198,0.04940283835630528,0.10798691690677724,-0.003508597770112573,0.047513516224135556,0.022993927583122874,0.003731896724540317,0.024027446162801475,
0.012705941711796953,0.04951479620507334,0.10837671796884418,-0.0038242738539132747,0.04791334725545717,0.023256250017560723,0.003769826233509093,0.02433530836500807,
0.013500063068786261,0.04962487994152194,0.10875435774905236,-0.004116490583844074,0.04831645595249762,0.023518547256822852,0.0038080324232221564,0.024643897657251897,
0.014294184425772016,0.049733043390367396,0.1091197246399375,-0.004385570546651367,0.04872265808345951,0.02378075610757058,0.00384650741684107,0.024953137742159886,
0.015088305782761324,0.04983924058457998,0.10947271198307618,-0.004631842350074273,0.04913176900775008,0.024042813582353873,0.003885243347276018,0.025262952291453603,
0.01588242713974708,0.04994342579241288,0.10981321810074894,-0.004855640395887871,0.049543603786158255,0.024304656933780828,0.003924232362226387,0.02557326498679695,
0.016676548496736388,0.05004555354475372,0.11014114632553061,-0.005057304651699591,0.04995797729159475,0.024566223688579403,0.003963466629204299,0.025883999560766684,
0.017470669853722143,0.050145578662779036,0.11045640502778559,-0.005237180421650426,0.050374704320329776,0.024827451681525285,0.004002938340537189,0.02619507983792375,
0.01826479121071145,0.05024345628589101,0.11075890764104857,-0.005395618116171776,0.05079359970366262,0.02508827908920969,0.004042639718345496,0.026506429775964006,
0.019058912567697206,0.050339141899916055,0.11104857268527389,-0.005532973020947911,0.05121447841995625,0.02534864446362085,0.004082563019491526,0.02681797350692635,
0.019853033924686514,0.0504325913655441,0.111325323787938,-0.0056496050652330146,0.05163715570696951,0.02560848676551283,0.004122700540495573,0.02712963537843655,
0.02064715528167227,0.05052376094698736,0.11158908970298234,-0.005745878589670757,0.0520614471744185,0.025867745397535617,0.004163044622415339,0.027441339994964783,
0.021441276638661577,0.05061260734083683,0.11183980432758713,-0.005822162113763238,0.05248716891669827,0.0261263602371001,0.004203587655684719,0.027753012259075123,
0.022235397995647332,0.05069908770509486,0.11207740671676684,-0.005878828103134864,0.05291413762569487,0.026384271668951978,0.004244322084908027,0.028064577412645033,
0.02302951935263664,0.0507831596883613,0.11230184109578267,-0.005916252736735531,0.05334217070361779,0.02664142061742854,0.004285240413605718,0.028375961078032894,
0.023823640709622396,0.05086478145915114,0.11251305687036789,-0.005934815674126033,0.053771086375781534,0.026897748578372443,0.004326335208907687,0.02868708929917187,
0.024617762066611704,0.05094391173532091,0.11271100863476455,-0.005934899822987274,0.05420070380326512,0.02715319765067663,0.004367599106190204,0.02899788858256793,
0.02541188342359746,0.05102050981358088,0.11289565617757204,-0.005916891106993291,0.05463084319537707,0.027407710567434837,0.004409024813652602,0.02930828593818044,
0.026206004780586767,0.05109453559907035,0.11306696448540987,-0.005881178234186529,0.055061325921853484,0.02766123072667223,0.004450605116829787,0.029618208920163147,
0.027000126137572522,0.05116594963497256,0.11322490374439892,-0.005828152465992188,0.05549197462471585,0.027913702221630997,0.004492332883036688,0.029927585667443826,
0.02779424749456183,0.05123471313214594,0.11336944933946717,-0.005758207387006743,0.055922613329714925,0.02816506987058583,0.004534201065740746,0.030236344944120575,
0.028588368851547585,0.051300787998748196,0.11350058185148769,-0.005671738675693927,0.0563530675572867,0.028415279246164528,0.004576202708858583,0.03054441617965283,
0.02938249020853334,0.051364136869829775,0.11361828705225775,-0.005569143876119661,0.056783164432945864,0.02866427670414919,0.004618330950972972,0.03085172950882519,
0.03017661156552265,0.051424723136873005,0.11372255589733041,-0.005450822170855449,0.05721273279704184,0.028912009411733677,0.004660579029466275,0.031158215811462026,
0.030970732922508404,0.05148251097725299,0.11381338451671028,-0.005317174155177796,0.05764160331380212,0.02915842537521355,0.0047029402845665345,0.031463806751870715,
0.03176485427949771,0.051537465383596694,0.11389077420342726,-0.005168601612689188,0.058069608579587435,0.02940347346708483,0.004745408163302398,0.03176843481799177,
0.03255897563648347,0.051589552193016065,0.11395473140000305,-0.0050055072924840216,0.058496583230282714,0.02964710345252852,0.004787976223363102,0.032072033360233385,
0.033353096993472775,0.05163873811619131,0.11400526768282648,-0.004828294687980774,0.058922364047748046,0.02988926601525795,0.00483063813685975,0.032374536629968524,
0.03414721835045853,0.051684990766280456,0.11404239974445506,-0.00463736781753938,0.05934679006525362,0.030129912782706728,0.004873387693984194,0.03267587981767234,
0.03494133970744784,0.0517282786876312,0.1140661493738602,-0.004433131006980585,0.05976970267182237,0.030368996350535377,0.00491621880656179,0.03297599909067764,
0.035735461064433593,0.051768571384271246,0.11407654343463605,-0.00421598867412165,0.0601909457154044,0.030606470306435186,0.004959125511494463,0.03327483163052635,
0.0365295824214229,0.05180583934815343,0.1140736138411903,-0.003986345115440404,0.06061036560480665,0.030842289253208654,0.005002101974090423,0.0335723156698945,
0.03732370377840866,0.05184005408713176,0.11405739753293825,-0.00374460429497717,0.061027811410302335,0.03107640883110596,0.005045142491277034,0.033868390529068766,
0.038117825135397965,0.05187118815264504,0.1140279364465207,-0.0034911696355816014,0.061443134962844016,0.03130878573939795,0.005088241494693308,0.03416299665195217,
0.03891194649238372,0.051899215167084754,0.11398527748606722,-0.0032264438126088824,0.06185619095180503,0.031539377757166503,0.00513139355365861,0.03445607564157668,
0.03970606784937303,0.05192410985082351,0.1139294724915266,-0.0029508285501671496,0.062266837021173735,0.031768143763293774,0.005174593378014208,0.03474757029510054,
0.04050018920635878,0.05194584804888146,0.1138605782050866,-0.0026647244200153474,0.06267493386412601,0.03199504375563239,0.005217835820834376,0.035037424638267756,
0.04129431056334809,0.05196440675720726,0.11377865623570538,-0.0023685306432080144,0.06308034531590144,0.03222003886933952,0.005261115881003819,0.03532558395930784,
0.042088431920333846,0.05197976414855125,0.11368377302177747,-0.0020626448945807647,0.06348293844490943,0.032443091394358255,0.005304428705658312,0.035611994842253185,
0.042882553277323154,0.05199189959790819,0.11357599979195704,-0.0017474631101674404,0.06388258364199156,0.03266416479203058,0.005347769592485496,0.03589660519965173,
0.04367667463430891,0.052000793707507126,0.1134554125241608,-0.0014233792976370957,0.06427915470776807,0.03288322371082702,0.0053911339918828695,0.03617936430465282,
0.04447079599129822,0.052006428331326605,0.11332209190277394,-0.0010907853498360986,0.0646725289379957,0.033100234001178536,0.005434517508970146,0.036460222822443614,
0.04526491734828397,0.052008786599113205,0.11317612327408125,-0.0007500708615177379,0.06506258720686613,0.03331516272939716,0.005477915905453211,0.036739132841013954,
0.04605903870527328,0.05200785293988188,0.11301759659994662,-0.0004016229493387855,0.06544921404817425,0.033527978190672644,0.005521325101337034,0.037016047901227124,
0.046853160062259036,0.05200361310487678,0.11284660640976307,-4.582607519948762e-05,0.06583229773428673,0.03373864992113312,0.005564741176485048,0.037290923026174275,
0.047647281419248344,0.051996054189971504,0.1126632517506953,0.0003169381269995439,0.06621173035284256,0.033947148708958784,0.005608160372022574,0.03756371474979005,
0.0484414027762341,0.051985164657488016,0.11246763613623767,0.0006862910211130864,0.0665874078811176,0.03415344660453809,0.005651579091582011,0.03783438114470714,
0.04923552413322341,0.051970934357413866,0.11225986749310897,0.0010618571349522898,0.06695923025798678,0.034357516929657154,0.005694993902387611,0.03810288184932742,
0.05002964549020916,0.05195335454799763,0.1120400581065059,0.001443264322866514,0.06732710145341861,0.034559334285713714,0.0057384015361778146,0.03836917809408723,
0.05082376684719847,0.05193241791570285,0.11180832456373692,0.0018301439246446879,0.06769092953543739,0.034758874560948026,0.005781798889963217,0.03863323272689478,
0.051617888204184226,0.051908118594501285,0.11156478769625787,0.0022221309206779017,0.06805062673449042,0.03495611493668368,0.00582518302661839,0.038895010237717326,
0.05241200956116998,0.05188045218448633,0.11130957252013067,0.0026188640833279694,0.06840610950515866,0.035151033892572646,0.005868551175305879,0.03915447678229612,
0.05320613091815929,0.0518494157697882,0.11104280817492626,0.0030199861244497384,0.06875729858515041,0.03534361121083925,0.005911900731730881,0.03941160020496695,
0.054000252275145044,0.05181500793577262,0.1107646278610925,0.0034251438390179184,0.06910411905151902,0.03553382797951904,0.005955229258225166,0.039666350060564695,
0.05479437363213435,0.05177722878550536,0.11047516877580842,0.0038339882448122334,0.06944650037404776,0.03572166659468921,0.0059985344836590284,0.039918697635389896,
0.05558849498912011,0.05173607995546525,0.11017457204734532,0.00424617471811764,0.06978437646574565,0.035907110761688385,0.006041814303180119,0.04016861596721605,
0.056382616346109415,0.051691564630489066,0.10986298266795592,0.0046613631253994,0.07011768573040063,0.03609014549532432,0.0060850667777782265,0.040416079864316105,
0.05717673770309517,0.05164368755793145,0.109540549425312,0.005079217950915671,0.07044637110713728,0.03627075711906906,0.006128290133675131,0.04066106592348722,
0.05797085906008448,0.05159245506102428,0.10920742483251149,0.005499408420233291,0.07077038011192914,0.03644893326324205,0.00617148276153893,0.040903552547052864,
0.058764980417070234,0.05153787505141965,0.10886376505667626,0.0059216086196153,0.0710896648760162,0.03662466286218257,0.006214643215522288,0.04114351995882185,
0.05955910177405954,0.05147995704090186,0.10850972984616128,0.006345497611251703,0.07140418218118093,0.036797936150413914,0.006257770212124266,0.04138095021898418,
0.0603532231310453,0.05141871215225338,0.10814548245639669,0.006770759544307824,0.07171389349183856,0.03696874465780237,0.006300862628875568,0.041615827237923834,
0.061147344488034605,0.05135415312926105,0.10777118957438421,0.007197083761767498,0.07201876498389863,0.03713708120371532,0.006343919502847194,0.04184813678892942,
0.06194146584502036,0.05128629434584841,0.10738702124186991,0.007624164903051192,0.0723187675703572,0.03730293989018339,0.00638694002898263,0.04207786651978376,
0.06273558720200967,0.0512151518143214,0.10699315077721491,0.008051703002391969,0.07261387692358148,0.03746631609407289,0.006429923558253949,0.04230500596321415,
0.06352970855899542,0.051140743192714416,0.10658975469598705,0.008479403582954997,0.07290407349425111,0.03762720645827517,0.006472869595642341,0.0425295465461856,
0.06432382991598473,0.05106308779122442,0.10617701263029593,0.008906977746689153,0.07318934252692227,0.03778560888192095,0.006515777797943772,0.04275148159802022,
0.06511795127297049,0.05098220657772158,0.10575510724689521,0.009334142259901982,0.0734696740721837,0.037941522509628435,0.0065586479714006985,0.04297080635732619,
0.0659120726299598,0.050898122182324895,0.10532422416407645,0.00976061963455205,0.07374506299537617,0.03809494771979476,0.00660148006916093,0.04318751797772113,
0.06670619398694555,0.05081085890103199,0.10488455186737945,0.010186138205255464,0.07401550898184946,0.03824588611194163,0.0066442741885649565,0.043401615532334896,
0.06750031534393486,0.05072044269839276,0.10443628162414495,0.010610432202006017,0.07428101653873369,0.03839434049312678,0.006687030568263246,0.043613100017078216,
0.06829443670092061,0.05062690120921717,0.10397960739693608,0.01103324181861115,0.07454159499320494,0.038540314863434,0.006729749585165252,0.04382197435266404,
0.06908855805790992,0.0505302637393081,0.10351472575585648,0.011454313276848482,0.07479725848722718,0.038683814400555176,0.006772431751222059,0.044028243385369904,
0.06988267941489568,0.0504305612652103,0.10304183578979294,0.01187339888635036,0.07504802596875684,0.038824845443479375,0.006815077710044835,0.04423191388653,
0.07067680077188498,0.05032782643296762,0.10256113901661286,0.012290257100226425,0.07529392117939757,0.038963415475304075,0.006857688233361474,0.044432994550747486,
0.07147092212887074,0.05022209355588094,0.10207283929234726,0.012704652566436768,0.07553497263849715,0.039099533105185644,0.006900264217314072,0.04463149599281799,
0.07226504348586005,0.05011339861126006,0.10157714271939104,0.013116356174930694,0.07577121362368093,0.039233208049446355,0.006942806678600033,0.04482743074335685,
0.0730591648428458,0.05000177923616311,0.10107425755375418,0.013525145100568715,0.0760026821478194,0.03936445111185679,0.006985316750459894,0.04502081324312342,
0.07385328619983511,0.04988727472211781,0.10056439411139802,0.01393080284184769,0.0762294209324306,0.039493274163113115,0.0070277956785151545,0.045211659836037255,
0.07464740755682087,0.049769926008819354,0.100047764673693,0.014333119255451459,0.07645147737752134,0.03961969011952968,0.007070244816459679,0.04539998876088221,
0.07544152891381017,0.04964977567680055,0.09952458339203488,0.014731890586651718,0.07666890352787416,0.03974371292096839,0.0071126656216084095,0.0455858201416955,
0.07623565027079593,0.04952686793907018,0.09899506619165796,0.015126919495586194,0.07688175603579066,0.03986535750802727,0.007155059650307417,0.045769175976840694,
0.07702977162778168,0.04940124863171608,0.09845943067468542,0.01551801507944336,0.07709009612030487,0.03998463979851128,0.00719742855320955,0.0459500801267644,
0.07782389298477099,0.049272965203470326,0.09791789602245755,0.015904992890585282,0.07729398952288315,0.0401015766632098,0.007239774070420188,0.04612855830043843,
0.07861801434175675,0.0491420667042342,0.0973706828971806,0.01628767495064235,0.0774935064596312,0.04021618590100569,0.007282098026517841,0.04630463804049011,
0.07941213569874606,0.04900860377256132,0.09681801334293932,0.016665889760615702,0.07768872157003198,0.04032848621334201,0.0073244023254545485,0.04647834870702555,
0.08020625705573181,0.04887262862209807,0.09626011068611862,0.01703947230702542,0.07787971386224138,0.040438497178073095,0.007366688945341314,0.04664972146015159,
0.08100037841272112,0.048734195026980766,0.09569719943527868,0.017408264064144613,0.07806656665497243,0.040546239222727494,0.00740895993312398,0.046818789241204,
0.08179449976970687,0.048593358306189986,0.09512950518053116,0.01777211299236139,0.07824936751600152,0.040651733597211324,0.00745121739915522,0.04698558675269085,
0.08258862112669618,0.048450175306862624,0.09455725449246284,0.018130873532712775,0.07842820819733412,0.0407550023459812,0.007493463511668511,0.04715015043696152,
0.08338274248368194,0.04830470438656311,0.09398067482065528,0.01848440659763648,0.07860318456707031,0.04085606827971662,0.007535700491160131,0.047312518453613464,
0.08417686384067125,0.048157005394516054,0.0933999943918489,0.01883257955798841,0.07877439653801374,0.040954954946522536,0.007577930604685498,0.04747273065565003,
0.084970985197657,0.04800713965180275,0.09281544210780046,0.0191752662263754,0.07894194799307114,0.04105168660269323,0.0076201561600762885,0.04763082856440425,
0.08576510655464631,0.04785516993052493,0.09222724744288337,0.019512346836854464,0.07910594670749235,0.04114628818306954,0.007662379500085006,0.04778685534324481,
0.08655922791163206,0.047701160431939706,0.09163564034148096,0.019843708021051554,0.07926650426800387,0.04123878527102169,0.0077046029964638095,0.047940855770081975,
0.08735334926862137,0.04754517676357019,0.09104085111522268,0.020169242780754375,0.07942373598889199,0.041329204068090826,0.007746829043984635,0.04809287620869243,
0.08814747062560713,0.047387285915297166,0.09044311034011392,0.02048885045703537,0.07957776082509502,0.0414175713633226,0.007789060054407765,0.04824296457888361,
0.08894159198259644,0.047227556234437466,0.08984264875360969,0.020802436695962528,0.0797287012823663,0.04150391450232662,0.007831298450406156,0.048391170325519116,
0.08973571333958219,0.04706605739981529,0.08923969715168338,0.021109913410957023,0.07987668332457322,0.04158826135609598,0.007873546659453001,0.048537544386428454,
0.0905298346965715,0.046902860394833684,0.08863448628594045,0.021411198741858192,0.08002183627819993,0.04167064028962136,0.007915807107680124,0.04868213915922493,
0.09132395605355725,0.046738037479553685,0.08802724676082863,0.021706217010757464,0.08016429273412404,0.04175108013033457,0.007958082213714902,0.04882500846705753,
0.09211807741054656,0.04657166216178912,0.08741820893099443,0.021994898674664358,0.08030418844674066,0.0418296101364165,0.008000374382503582,0.04896620752332309,
0.09291219876753232,0.046403809167225744,0.08680760279883692,0.022277180275068604,0.08044166223050925,0.041906259965004765,0.008042685999128883,0.04910579289536673,
0.09370632012452162,0.04623455440857415,0.08619565791230863,0.0225530043844638,0.08057685585400154,0.041981059640336264,0.008085019422629914,0.04924382246719865,
0.09450044148150738,0.0460639749537662,0.08558260326301358,0.02282231954989884,0.08070991393153086,0.04205403952186024,0.008127376979832497,0.04938035540125734,
0.09529456283849669,0.04589214899320532,0.08496866718465251,0.023085080233624638,0.08084098381244588,0.04212523027235709,0.00816976095919799,0.04951545209924965,
0.09608868419548244,0.04571915580608185,0.08435407725186457,0.023341246750904442,0.08097021546817369,0.04219466282609843,0.008212173604698812,0.049649174162099005,
0.09688280555247175,0.04554507572576484,0.08373906017951438,0.023590785205056992,0.08109776137709884,0.04226236835708359,0.008254617109728829,0.04978158434903375,
0.0976769269094575,0.04536999010428284,0.08312384172247375,0.02383366741980266,0.08122377640736758,0.04232837824738778,0.008297093611056855,0.049912746535848845,
0.09847104826644681,0.04519398127590642,0.0825086465759456,0.02406987086898347,0.08134841769770772,0.04239272405565704,0.008339605182831403,0.05004272567237403,
0.09926516962343257,0.0450171325198459,0.0818936982763788,0.024299378603728772,0.08147184453635703,0.04245543748578442,0.008382153830644955,0.05017158773918324,
0.10005929098041833,0.04483952802207853,0.08127921910302131,0.02452217917713889,0.08159421823819402,0.04251655035580203,0.008424741485665853,0.05029939970357962,
0.10085341233740763,0.04466125283632007,0.08066542998015827,0.0247382665665598,0.0817157020201669,0.042576094567022944,0.008467369998845927,0.050426229474891775,
0.10164753369439339,0.04448239284415649,0.08005255038008195,0.0249476400935227,0.08183646087511767,0.04263410207346664,0.008510041135211956,0.05055214585911713,
0.1024416550513827,0.04430303471435201,0.07944079822683993,0.025150304341422503,0.08195666144409983,0.04269060485160147,0.008552756568248917,0.05067721851294891,
0.10323577640836845,0.04412326586135078,0.07883038980080659,0.025346269071010265,0.08207647188728945,0.04274563487043673,0.008595517874382964,0.0508015178972236,
0.10402989776535776,0.043943174402990066,0.07822153964412351,0.02553554913377477,0.08219606175359093,0.0427992240619969,0.008638326527571996,0.05092511522982647,
0.10482401912234351,0.04376284911744396,0.07761446046705271,0.02571816438328908,0.08231560184903922,0.042851404292209815,0.008681183894011534,0.05104808243809273,
0.10561814047933282,0.04358237939941705,0.07700936305528742,0.0258941395845981,0.0824352641041024,0.042902207332240115,0.008724091226963588,0.05117049211074281,
0.10641226183631858,0.04340185521560882,0.0764064561782637,0.026063504321723743,0.08255522143998863,0.04295166483029863,0.008767049661715995,0.05129241744939018,
0.10720638319330789,0.043221367059469995,0.07580594649851595,0.026226292903364482,0.08267564763406302,0.042999808283957795,0.008810060210679673,0.051413932219660834,
0.10800050455029364,0.04304100590527338,0.07520803848211932,0.026382544266866356,0.08279671718448113,0.04304666901300278,0.008853123758631055,0.05153511070196372,
0.10879462590728295,0.04286086316152225,0.07461293431026096,0.026532301880542845,0.08291860517414537,0.04309227813284687,0.008896241058106895,0.05165602764195159,
0.1095887472642687,0.042681030623720854,0.0740208337919821,0.026675613644421003,0.08304148713409325,0.04313666652853961,0.008939412724958405,0.05177675820071233,
0.11038286862125801,0.04250160042653179,0.07343193427813195,0.02681253178949158,0.08316553890642567,0.043179864829395086,0.008982639234071568,0.05189737790473086,
0.11117698997824377,0.042322664995346614,0.07284643057657456,0.02694311277554075,0.08329093650688447,0.04322190338426729,0.009025920915260341,0.0520179625956619,
0.11197111133523308,0.042144316997296594,0.07226451486868904,0.027067417187641232,0.08341785598718916,0.04326281223749863,0.00906925794933923,0.05213858837995391,
0.11276523269221883,0.0419666492917314,0.07168637662720297,0.027185509631380535,0.08354647329724221,0.04330262110556676,0.009112650364381553,0.052259331578364605,
0.11355935404920814,0.041789754880194846,0.07111220253539938,0.027297458626904057,0.08367696414731338,0.043341359354454614,0.009156098032169619,0.052380268675408674,
0.1143534754061939,0.0416137268559273,0.07054217640773605,0.02740333650185054,0.08380950387031275,0.04337905597776704,0.009199600664842647,0.052501476268777894,
0.1151475967631832,0.04143865835292549,0.06997647911191665,0.027503219283257312,0.0839442672842629,0.04341573957561714,0.009243157811748203,0.05262303101877426,
0.11594171812016896,0.041264642494591074,0.06941528849245154,0.02759718658851258,0.08408142855507947,0.043451438334304454,0.00928676885650259,0.05274500959779625,
0.11673583947715827,0.04109177234200061,0.06885877929574698,0.027685321515431505,0.08422116105976962,0.0434861800068058,0.009330433014265468,0.0528674886399181,
0.11752996083414402,0.04092014084183011,0.06830712309676014,0.027767710531532833,0.08436363725015755,0.043519991894099115,0.009374149329233725,0.052990544690601916,
0.11832408219113333,0.04074984077396803,0.06776048822725743,0.027844443362592442,0.0845090285172449,0.04355290082733939,0.00941791667235927,0.05311425415658226,
0.11911820354811908,0.04058096469885169,0.06721903970571332,0.027915612880549667,0.08465750505631395,0.04358493315090482,0.009461733739295337,0.05323869325596264,
0.11991232490510839,0.04041360490456235,0.06668293916888586,0.027981314990841923,0.08480923573288063,0.043616114706330464,0.009505599048575418,0.05336393796856271,
0.12070644626209415,0.0402478533537151,0.06615234480510572,0.02804164851924263,0.08496438794960245,0.04364647081714548,0.009549510940028854,0.05349006398655484,
0.12150056761908345,0.04008380163018002,0.0656274112893138,0.02809671509827702,0.08512312751424679,0.04367602627462898,0.00959346757343667,0.05361714666542839,
0.12229468897606921,0.039921540885671944,0.06510828971988343,0.028146619053289863,0.08528561850882257,0.04370480532449853,0.009637466927431084,0.053745260975319585,
0.12308881033305497,0.039761161786246356,0.06459512755726132,0.0281914672882385,0.08545202315997849,0.043732831654544106,0.009681506798641729,0.05387448145274468,
0.12388293169004427,0.03960275445873947,0.06408806856446209,0.028231369171284007,0.0856225017107683,0.043760128383219084,0.009725584801091423,0.054004882152773256,
0.12467705304703003,0.0394464084371908,0.06358725274944951,0.02826643642025275,0.08579721229388275,0.043786718049198974,0.009769698365843894,0.0541365366016785,
0.12547117440401934,0.0392922126092873,0.06309281630943772,0.028296782988039705,0.08597631080644641,0.043812622601917095,0.009813844740905676,0.054269517750100436,
0.1262652957610051,0.039140255162867676,0.06260489157714463,0.028322524948024296,0.08615995078647563,0.043837863393085486,0.009858020991383984,0.05440389792675781,
0.1270594171179944,0.038990623532526525,0.06212360696902884,0.02834378037956878,0.08634828329109179,0.04386246116920786,0.009902223999902126,0.05453974879274361,
0.12785353847498016,0.038843404346357455,0.061649086935541025,0.0283606692536683,0.08654145677658331,0.043886436065090274,0.009946450467273634,0.05467714129643894,
0.12864765983196946,0.038698683372874944,0.0611814519134194,0.02837331331882099,0.08673961698040707,0.043909807598354104,0.009990696913436032,0.05481614562907925,
0.12944178118895522,0.03855654546815454,0.06072081828005825,0.028381835987185414,0.08694290680521756,0.043932594664954465,0.010034959678644793,0.054956831181006326,
0.13023590254594453,0.038417074523231245,0.060267298309977665,0.02838636222109207,0.08715146620501144,0.04395481553570621,0.010079234924927698,0.055099266498638964,
0.13103002390293028,0.03828035341179598,0.059821000133421454,0.028387018419974396,0.08736543207347151,0.043976487853818094,0.010123518637799535,0.05524351924219438,
0.1318241452599196,0.0381464639382296,0.05938202769710903,0.028383932307783837,0.08758493813459307,0.04399762863343465,0.010167806628236686,0.05538965614419214,
0.13261826661690534,0.03801548678601423,0.05895048072716658,0.028377232820952666,0.08781011483567273,0.04401825425918383,0.010212094534910857,0.05553774296877152,
0.13341238797389465,0.037887501466561474,0.05852645469426131,0.028367049996967007,0.0880410892427379,0.0440383804867275,0.010256377826680822,0.05568784447185238,
0.1342065093308804,0.03776258626849663,0.05811004078096151,0.02835351486361159,0.0882779849384927,0.044058022444310556,0.010300651805340852,0.0558400243621693,
0.13500063068786972,0.0376408182074384,0.05770132585134447,0.02833675932894641,0.0885209219228538,0.044077194635302984,0.010344911608624052,0.055994345263207644,
0.13579475204485547,0.03752227297631287,0.057300392422872534,0.028316916072074774,0.08877001651614698,0.044095910941728544,0.010389152213458546,0.0561508686760695,
0.13658887340184478,0.037407024896240204,0.05690731864055698,0.028294118434760505,0.0890253812650333,0.04411418462877193,0.010433368439474197,0.05630965494329679,
0.13738299475883053,0.03729514686803264,0.05652217825342789,0.02826850031395139,0.08928712485123043,0.04413202835025538,0.010477554952757121,0.05647076321367767,
0.13817711611581984,0.03718671032434147,0.05614504059332699,0.02824019605526427,0.08955535200309281,0.04414945415507457,0.010521706269849069,0.0566342514080616,
0.1389712374728056,0.0370817851824908,0.05577597055603963,0.028209340347486227,0.089830163410112,0.04416647349458253,0.010565816761988348,0.05680017618620729,
0.1397653588297949,0.03698043979803506,0.055415028584780146,0.02817606811814506,0.09011165564039501,0.04418309723090892,0.010609880659588674,0.05696859291468715,
0.14055948018678066,0.0368827409190769,0.055062270656043896,0.02814051443020084,0.09039992106117643,0.04419933564620129,0.010653892056952071,0.057139555635870434,
0.14135360154376997,0.03678875364138165,0.054717748267837915,0.02810281437990899,0.09069504776241748,0.04421519845277333,0.010697844917211577,0.05731311703800624,
0.14214772290075572,0.036698541364323815,0.05438150843030064,0.028063102995904123,0.09099711948354192,0.04423069480414448,0.010741733077499335,0.0574893284264268,
0.14294184425774503,0.03661216574770094,0.054053593658719715,0.028021515139552568,0.09130621554335662,0.04424583330695416,0.010785550254335226,0.05766823969589027,
0.1437359656147308,0.036529686669448884,0.05373404196895575,0.027978185406620015,0.09162241077320117,0.04426062203373252,0.010829290049231022,0.057849899304081034,
0.1445300869717201,0.03645116218429265,0.05342288687527792,0.027933248030299628,0.09194577545336917,0.04427506853650904,0.010872945954504673,0.05803435424628466,
0.14532420832870585,0.03637664848336581,0.05312015739061648,0.027886836785644187,0.09227637525283992,0.04428917986123893,0.010916511359299146,0.058221650031253507,
0.14611832968569516,0.036306199854830974,0.05282587802923505,0.027839084895444878,0.09261427117235799,0.04430296256302653,0.010959979555799871,0.058411830658277826,
0.1469124510426809,0.036239868645533316,0.05254006881182472,0.02779012493759768,0.09295951949089336,0.04431642272212386,0.01100334374564477,0.05860493859547621,
0.14770657239966667,0.036177705223718146,0.05226274527301991,0.02774008875399703,0.09331217171551431,0.044329565960681536,0.01104659704652037,0.05880101475931827,
0.14850069375665598,0.036119757942843,0.051993918471334735,0.02768910736099518,0.09367227453470063,0.04434239746022839,0.011089732498937393,0.05900009849539133,
0.14929481511364173,0.0360660731065139,0.05173359500151675,0.02763731086146398,0.09403986977512338,0.04435492197985544,0.011132743073178995,0.05920222756042214,
0.15008893647063104,0.036016694934574656,0.051481777009313875,0.02758482835849466,0.09441499436191415,0.044367143875078875,0.011175621676414489,0.05940743810556323,
0.1508830578276168,0.03597166553037755,0.051238462208648104,0.02753178787076973,0.09479768028244384,0.04437906711735596,0.011218361159971251,0.05961576466095306,
0.1516771791846061,0.03593102484926242,0.05100364390118857,0.027478316249639635,0.09518795455362901,0.044390695314227006,0.011260954326757309,0.059827240121557844,
0.15247130054159186,0.03589481066827114,0.05077731099831461,0.027424539097935685,0.09558583919278112,0.04440203173005602,0.011303393938826883,0.06004189573430208,
0.15326542189858117,0.03586305855712297,0.050559448045458116,0.027370580690549106,0.09599135119201087,0.044413079307341764,0.011345672725080953,0.060259761086493994,
0.15405954325556692,0.03583580185047586,0.05035003524881274,0.02731656389680499,0.09640450249619813,0.04442384068857046,0.01138778338909477,0.0604808640955511,
0.15485366461255623,0.035813071621497834,0.05014904850439601,0.027262610104658424,0.09682529998453449,0.04443431823858065,0.011429718617064011,0.060705231000030266,
0.15564778596954199,0.03579489665677172,0.049956459429448784,0.027208839146738585,0.09725374545564401,0.04444451406741043,0.011471471085861192,0.06093288635196574,
0.1564419073265313,0.0357813034325555,0.04977223539615489,0.027155369228265443,0.09768983561628496,0.044454430053596415,0.01151303347119374,0.06116385301051742,
0.15723602868351705,0.035772316092419744,0.04959633956766244,0.027102316856862405,0.0981335620736329,0.04446406786789379,0.01155439845585509,0.061398152136931075,
0.15803015004050636,0.03576795642628286,0.04942873093638637,0.02704979677428687,0.09858491133114339,0.04447342899738618,0.011595558738060013,0.061635803190811245,
0.1588242713974921,0.03576824385086347,0.04926936436457063,0.02699792189009937,0.09904386478798988,0.04448251476995375,0.011636507039855205,0.06187682392770607,
0.15961839275448142,0.03577319539156887,0.049118190627086486,0.026946803217290392,0.09951039874207088,0.04449132637906745,0.011677236115596295,0.06212123039800308,
0.16041251411146717,0.03578282566583701,0.04897515645644208,0.026896549809883263,0.09998448439657733,0.04449986490887787,0.011717738760482075,0.062369036947133534,
0.16120663546845648,0.035797146867948694,0.048840204589976684,0.026847268702529722,0.10046608787011026,0.04450813135956616,0.011758007819137006,0.06262025621708225,
0.16200075682544224,0.035816168755325714,0.048713273819211804,0.026799064852113648,0.10095517021033544,0.04451612667292491,0.01179803619423286,0.06287489914919878,
0.16279487818243155,0.035839898636329415,0.048594299041329565,0.02675204108137714,0.1014516874111604,0.04452385175813662,0.011837816855140397,0.06313297498830489,
0.1635889995394173,0.03586834135957338,0.04848321131274768,0.026706298024581975,0.10195559043341679,0.04453130751771749,0.011877342846601933,0.0633944912880926,
0.1643831208964066,0.035901499304762524,0.04837993790475832,0.026661934075217986,0.10246682522902972,0.044538494873594466,0.01191660729741578,0.06365945391780568,
0.16517724225339236,0.03593937237507001,0.048284402361197146,0.02661904533576887,0.10298533276865277,0.044545414793283195,0.011955603429123484,0.06392786707019675,
0.16597136361038167,0.03598195799106235,0.048196524558107294,0.026577725569544613,0.1035110490727462,0.04455206831613556,0.011994324564690899,0.0641997332707517,
0.16676548496736743,0.03602925108618172,0.04811622076536157,0.026538066154588574,0.10404390524607415,0.04455845657962476,0.012032764137174202,0.06447505338817154,
0.16755960632435674,0.036081244103793535,0.0480434037102049,0.026500156039665757,0.10458382751559425,0.044564580845636775,0.012070915698361927,0.06475382664610155,
0.1683537276813425,0.03613792699580603,0.047977982642677636,0.026464081702337983,0.10513073727171213,0.04457044252673713,0.012108772927384374,0.06503605063609622,
0.1691478490383318,0.03619928722286752,0.04791986340287882,0.026429927109130107,0.10568455111287096,0.044576043212382115,0.01214632963928171,0.06532172133180808,
0.16994197039531755,0.036265309756145725,0.04786894849002736,0.026397773677790778,0.10624518089344469,0.04458138469504431,0.012183579793522276,0.0656108331043874,
0.1707360917523033,0.03633597708069225,0.04782513713327794,0.02636770024164955,0.10681253377490209,0.0445864689962221,0.012220517502462742,0.06590337873907919,
0.17153021310929262,0.03641126920039437,0.04778832536424675,0.026339783016071303,0.10738651228020711,0.044591298392304156,0.01225713703974188,0.06619934945300314,
0.17232433446627837,0.036491163644514706,0.04775840609120101,0.026314095567007628,0.10796701435141959,0.04459587544025929,0.01229343284859987,0.06649873491410144,
0.17311845582326768,0.03657563547581854,0.047735269174865404,0.02629070878164398,0.10855393341045864,0.04460020300312352,0.012329399550115284,0.06680152326123849,
0.17391257718025344,0.03666465730028674,0.047718801505796715,0.026269690841140128,0.10914715842299041,0.04460428427525637,0.012365031951352029,0.06710770112543644,
0.17470669853724274,0.036758199278411466,0.04770888708327733,0.026251107195460505,0.10974657396539952,0.04460812280733881,0.01240032505340865,0.067417253652229,
0.1755008198942285,0.03685622913807012,0.04770540709567692,0.0262350205402899,0.11035206029480227,0.04461172253108645,0.012435274059362735,0.06773016452511607,
0.1762949412512178,0.03695871218897236,0.04770824000223059,0.02622149079602887,0.1109634934220586,0.0446150877836514,0.012469874382103249,0.06804641599010017,
0.17708906260820356,0.037065611338672984,0.047717261616180486,0.026210575088862362,0.11158074518773761,0.0446182233316876,0.012504121652043794,0.06836598888128576,
0.17788318396519287,0.03717688711014283,0.047732345189227386,0.026202327733894016,0.11220368334099048,0.044621134395054614,0.012538011724710117,0.06868886264752119,
0.17867730532217863,0.037292497660888255,0.047753361497237266,0.026196800220337664,0.11283217162128327,0.04462382667013574,0.012571540688195205,0.06901501538006242,
0.17947142667916793,0.03741239880360849,0.047780178927147574,0.02619404119875636,0.11346606984293967,0.04462630635274715,0.01260470487047562,0.06934442384123637,
0.1802655480361537,0.0375365440283792,0.04781266356501663,0.026194096470338584,0.1141052339824434,0.04462858016061482,0.012637500846582824,0.06967706349408188,
0.181059669393143,0.03766488452634902,0.04785067928515912,0.02619700897820027,0.11474951626844729,0.04463065535539721,0.012669925445623509,0.07001290853294424,
0.18185379075012875,0.03779736921493494,0.04789408784030967,0.026202818800700363,0.11539876527443527,0.044632539764232045,0.012701975757643048,0.07035193191499937,
0.18264791210711806,0.0379339447645007,0.04794274895275602,0.026211563146756673,0.11605282601398136,0.04463424180078634,0.012733649140326434,0.07069410539268156,
0.18344203346410382,0.038074555626501735,0.04799652040638266,0.02622327635314805,0.1167115400385485,0.04463577048578958,0.012764943225531206,0.07103939954698962,
0.18423615482109312,0.03821914406307851,0.048055258139565224,0.02623798988378789,0.11737474553776849,0.04463713546703025,0.012795855925647014,0.0713877838216435,
0.18503027617807888,0.0383676501780795,0.04811881633885554,0.02625573233095313,0.11804227744214175,0.04463834703879694,0.012826385439776745,0.07173922655806374,
0.1858243975350682,0.03852001194949307,0.048187047533396324,0.026276529418451964,0.11871396752809468,0.04463941616074567,0.01285653025973419,0.0720936950311447,
0.18661851889205394,0.03867616526326741,0.048259802690004745,0.026300404006712658,0.11938964452533046,0.04464035447617556,0.012886289175853487,0.07245115548579177,
0.18741264024904325,0.03883604394849548,0.048336931308863164,0.026327376099775007,0.12006913422640683,0.044641174329696144,0.012915661282605647,0.07281157317419219,
0.188206761606029,0.03899957981394163,0.04841828151975521,0.026357462854164973,0.12075225959847347,0.04464188878426953,0.01294464598401775,0.07317491239378787,
0.1890008829630183,0.03916670268588498,0.04850370017878501,0.02639067858963211,0.12143884089709885,0.044642511637611695,0.012973242998890444,0.0735411365259183,
0.18979500432000407,0.03933734044725385,0.04859303296551749,0.02642703480172856,0.12212869578211567,0.04464305743793769,0.013001452365809553,0.07391020807510033,
0.19058912567699338,0.03951141907802447,0.04868612448047679,0.026466540176207472,0.12282163943541113,0.044643541499036016,0.013029274447947823,0.07428208870891141,
0.19138324703397913,0.03968886269685603,0.048782818342940425,0.026509200605217803,0.12351748468058721,0.044643979914657995,0.013056709937652865,0.07465673929844169,
0.19217736839096844,0.039869593603933356,0.04888295728896602,0.02655501920527173,0.12421604210441425,0.04464438957220868,0.013083759860817628,0.07503411995928025,
0.1929714897479542,0.0400535323249874,0.04898638326958805,0.02660399633695958,0.12491712017999972,0.0446447881657261,0.013110425581029744,0.07541419009299984,
0.19376561110493995,0.040240597656462894,0.04909293754912137,0.026656129626386818,0.1256205253915919,0.044645194208136535,0.013136708803496355,0.075796908429104,
0.19455973246192926,0.04043070671180155,0.049202460803508465,0.026711413988306305,0.12632606236093763,0.04464562704277389,0.013162611578741051,0.0761822330674002,
0.195353853818915,0.04062377496880859,0.04931479321864748,0.026769841650918426,0.12703353397511066,0.04464610685415175,0.013188136306069798,0.07657012152076147,
0.19614797517590432,0.04081971631806937,0.049429774588637926,0.02683140218231079,0.12774274151572643,0.044646654677977717,0.013213285736802803,0.0769605307582392,
0.19694209653289008,0.04101844311238219,0.04954724441388102,0.02689608251850832,0.12845348478945776,0.04464729241039975,0.013238062977269456,0.0773534172484899,
0.19773621788987938,0.04121986621717237,0.04966704199897177,0.026963866993103783,0.12916556225976433,0.04464804281647486,0.013262471491563628,0.07774873700347686,
0.19853033924686514,0.04142389506185239,0.049789006550319856,0.02703473736843785,0.12987877117974775,0.044648929537851406,0.013286515104056743,0.07814644562240922,
0.19932446060385445,0.041630437692091724,0.04991297727343689,0.02710867286829718,0.13059290772604357,0.04464997709965666,0.013310198001666232,0.07854649833587948,
0.2001185819608402,0.04183940082295987,0.050038793469827314,0.027185650212098098,0.13130776713365974,0.04465121091658179,0.01333352473587709,0.07894885005016127,
0.2009127033178295,0.042050689892904995,0.050166294633421184,0.02726564365052271,0.13202314383167113,0.04465265729815746,0.013356500224514482,0.07935345539162804,
0.20170682467481527,0.042264209118530245,0.05029532054648649,0.02734862500257366,0.1327388315796776,0.04465434345321337,0.013379129753265459,0.07976026875125485,
0.20250094603180457,0.04247986155012925,0.05042571137495966,0.027434563694012842,0.13345462360493357,0.04465629749351617,0.01340141897694811,0.08016924432916384,
0.20329506738879033,0.04269754912794175,0.05055730776313293,0.027523426797148736,0.1341703127400555,0.044658548436580826,0.013423373920526492,0.08058033617917566,
0.20408918874577964,0.04291717273908994,0.050689950927637936,0.02761517907193638,0.13488569156121438,0.04466112620765079,0.013445000979870043,0.08099349825332787,
0.2048833101027654,0.043138632275155506,0.050823482750665096,0.02770978300835342,0.13560055252671924,0.04466406164084345,0.01346630692225621,0.08140868444632257,
0.2056774314597547,0.043361826690357104,0.050957745872359156,0.02780719887001497,0.13631468811589745,0.044667386479458095,0.013487298886615295,0.08182584863986561,
0.20647155281674046,0.043586654060287555,0.05109258378233166,0.027907384738989287,0.13702789096817725,0.044671133375444046,0.013507984383516624,0.08224494474685952,
0.20726567417372976,0.04381301164116963,0.05122784091023177,0.02801029656177598,0.13773995402227854,0.04467533588802755,0.013528371294895382,0.08266592675541325,
0.20805979553071552,0.04404079592958944,0.05136336271531752,0.028115888196407642,0.1384506706554171,0.04468002848149672,0.013548467873519607,0.08308874877263235,
0.20885391688770483,0.044269902722665504,0.05149899577497058,0.028224111460635474,0.13915983482242716,0.044685246522144596,0.013568282742197032,0.08351336506815353,
0.20964803824469058,0.044500227178611934,0.051634587872097654,0.028334916181159076,0.1398672411947092,0.04469102627437099,0.013587824892721536,0.08393973011738796,
0.2104421596016799,0.0447316638776538,0.05176998808136351,0.028448250243859892,0.14057268529890735,0.04469740489594474,0.013607103684559346,0.08436779864443827,
0.21123628095866565,0.04496410688325259,0.05190504685420049,0.0285640596449975,0.1412759636552243,0.04470442043242817,0.013626128843275109,0.08479752566465475,
0.21203040231565495,0.04519744980359949,0.05203961610254109,0.02868228854332758,0.14197687391527836,0.04471211181076679,0.013644910458698218,0.08522886652679752,
0.2128245236726407,0.04543158585333431,0.0521735492812206,0.028802879313100105,0.14267521499941171,0.04472051883204778,0.013663458982829956,0.08566177695477181,
0.21361864502963002,0.04566640791544724,0.052306701468998296,0.0289257725978959,0.14337078723335597,0.044729682163431095,0.01368178522749226,0.08609621308890388,
0.21441276638661577,0.045901808603321395,0.052438929448146536,0.029050907365259608,0.14406339248416386,0.04473964332925849,0.01369990036171892,0.0865321315267265,
0.21520688774360508,0.04613768032287364,0.05257009178255859,0.029178220962086696,0.1447528342953157,0.044750444701345565,0.013717815908890358,0.0869694893632436,
0.21600100910059084,0.04637391533475122,0.05270004889432659,0.02930764917072192,0.14543891802090952,0.044762129488463115,0.013735543743613216,0.08740824423064378,
0.2167951304575766,0.04661040581654155,0.052828663138743195,0.02943912626572663,0.14612145095884405,0.044774741725014354,0.013753096088346113,0.08784835433743358,
0.2175892518145659,0.04684704392495281,0.05295579887768126,0.029572585071272042,0.1468002424829063,0.044788326258915566,0.013770485509773164,0.088289778506962,
0.21838337317155165,0.04708372185792284,0.05308132255130759,0.029707957019115414,0.14747510417367315,0.044802928738687624,0.013787724914926977,0.08873247621530882,
0.21917749452854096,0.04732033191661408,0.05320510274808821,0.029845172207116133,0.14814584994813862,0.044818595599767225,0.01380482754706295,0.08917640762850944,
0.21997161588552672,0.04755676656725203,0.053327010273044026,0.029984159458248588,0.14881229618797814,0.04483537405004634,0.013821806981286855,0.08962153363908938,
0.22076573724251602,0.04779291850276518,0.053446918214217425,0.030124846380068605,0.1494742618663629,0.044853312054649444,0.013838677119937833,0.09006781590188277,
0.22155985859950178,0.04802868070418442,0.053564702007311636,0.030267159424590268,0.15013156867323585,0.04487245831995813,0.013855452187729014,0.09051521686910903,
0.2223539799564911,0.048263946501759906,0.053680239498466814,0.03041102394852987,0.15078404113896415,0.04489286227689321,0.0138721467266481,0.09096369982468329,
0.22314810131347684,0.04849860963575346,0.05379341100513797,0.030556364273874016,0.1514315067562802,0.044914574063464885,0.0138887755906204,0.09141322891773529,
0.22394222267046615,0.04873256431686502,0.05390409937504211,0.030703103748728578,0.15207379610042726,0.044937644506602065,0.013905353939936811,0.09186376919531287,
0.2247363440274519,0.04896570528625169,0.05401219004314301,0.030851164808405482,0.15271074294742346,0.04496212510327192,0.013921897235449471,0.0923152866342466,
0.22553046538444121,0.049197927875098225,0.054117571086644216,0.031000469036704583,0.1533421843903598,0.044988068000901354,0.01393842123253779,0.0927677481721519,
0.22632458674142697,0.04942912806369812,0.05422013327796262,0.03115093722734774,0.15396796095364915,0.04501552597711221,0.013954941974847607,0.09322112173754585,
0.22711870809841628,0.049659202540004665,0.05431977013565638,0.03130248944552267,0.15458791670514196,0.04504455241878236,0.013971475787806427,0.09367537627905606,
0.22791282945540203,0.04988804875761187,0.05441637797328305,0.03145504508949406,0.15520189936602619,0.04507520130044544,0.013988039271917616,0.09413048179369919,
0.22870695081239134,0.05011556499312543,0.054509855946165336,0.03160852295223989,0.15580976041843028,0.045107527162041694,0.01400464929583658,0.09458640935420777,
0.2295010721693771,0.05034165040288399,0.054600106096043946,0.03176284128307125,0.1564113552106472,0.04514158508603313,0.0140213229892319,0.09504313113538314,
0.2302951935263664,0.05056620507899213,0.05468703339359855,0.03191791784919394,0.15700654305989967,0.0451774306738964,0.0140380777354346,0.09550062043945376,
0.23108931488335216,0.05078913010462633,0.05477054577882015,0.03207366999717078,0.15759518735256703,0.0452151200220069,0.014054931163878535,0.09595885172041789,
0.23188343624034147,0.051010327608576135,0.054850554199219574,0.03223001471424372,0.15817715564179569,0.04525470969692824,0.014071901142335147,0.09641780060735058,
0.23267755759732722,0.051229700818982836,0.05492697264585849,0.03238686868947544,0.15875231974241602,0.045296256710121094,0.014089005768945695,0.0968774439266554,
0.23347167895431653,0.051447154116239256,0.054999718187192154,0.032544148374670394,0.15932055582308954,0.045339818492085834,0.014106263364054178,0.09733775972324116,
0.23426580031130229,0.0516625930850143,0.05506871100071402,0.032701770045035855,0.15988174449561132,0.04538545286595403,0.014123692461844207,0.09779872728060547,
0.2350599216682916,0.051875924565366924,0.05513387440239475,0.03285964985954394,0.16043577090129504,0.045433218020543405,0.014141311801783034,0.09826032713980669,
0.23585404302527735,0.052087056702915,0.055195134873909604,0.033017703920956286,0.16098252479436878,0.04548317248289209,0.014159140319876093,0.09872254111730669,
0.23664816438226666,0.05229589899802507,0.05525242208765072,0.033175848335473476,0.1615219006223125,0.04553537509028741,0.0141771971397353,0.0991853523216679,
0.2374422857392524,0.052502362353990355,0.05530566892952194,0.033333999271972045,0.1620537976030672,0.045589884961805154,0.01419550156346454,0.09964874516908832,
0.23823640709624172,0.052706359124164506,0.055354811519516135,0.03349207302079232,0.16257811979905143,0.04564676146937535,0.014214073062365577,0.10011270539775857,
0.23903052845322748,0.05290780315802041,0.05539978923007643,0.03364998605204121,0.16309477618791907,0.045706064208390886,0.014232931267467918,0.10057722008102656,
0.23982464981021678,0.05310660984610374,0.055440544702244625,0.03380765507337463,0.16360368072999762,0.0457678529678755,0.014252095959885972,0.1010422776393547,
0.24061877116720254,0.053302696163852366,0.05547702385960213,0.033964997087225154,0.16410475243234657,0.045832187700227976,0.014271587061007143,0.101507867851057,
0.2414128925241883,0.05349598071425382,0.05550917592000989,0.03412192944744099,0.16459791540937777,0.04589912849055938,0.014291424622514301,0.10197398186180238,
0.2422070138811776,0.053686383769314144,0.05553695340515572,0.03427836991530317,0.1650830989399838,0.04596873552564067,0.014311628816246296,0.10244061219287233,
0.24300113523816336,0.053873827310312726,0.05556031214791904,0.03443423671488884,0.16556023752112112,0.046041069062477825,0.014332219923900139,0.10290775274816114,
0.24379525659515267,0.054058235066818984,0.05557921129756421,0.03458944858774918,0.16602927091779884,0.046116189396532385,0.014353218326578588,0.10337539881990819,
0.24458937795213842,0.05423953255444788,0.05559361332277584,0.034743924846871284,0.1664901442094262,0.04619415682960494,0.014374644494186973,0.10384354709315204,
0.24538349930912773,0.0544176471113328,0.05560348401255024,0.034897585429894504,0.16694280783247428,0.04627503163739976,0.014396518974683106,0.10431219564889692,
0.24617762066611348,0.05459250793329534,0.05560879247495902,0.03505035095155209,0.16738721761941142,0.04635887403678862,0.014418862383184272,0.10478134396598321,
0.2469717420231028,0.05476404610769346,0.055609511133802136,0.03520214275531041,0.16782333483387396,0.04644574415279238,0.01444169539093532,0.10525099292165419,
0.24776586338008855,0.05493219464593,0.05560561572316888,0.03535288296417849,0.16825112620203717,0.046535701985298425,0.014465038714141983,0.1057211447908115,
0.24855998473707785,0.05509688851460582,0.05559708527992709,0.035502494530661614,0.16867056394015426,0.046628807375532974,0.014488913102673591,0.1061918032439531,
0.2493541060940636,0.05525806466530255,0.05558390213416157,0.035650901285833536,0.16908162577823357,0.04672511997230677,0.01451333932863952,0.1066629733437873,
0.2501482274510529,0.05541566206298156,0.05556605189758446,0.03579802798750276,0.1694842949798287,0.046824699198052926,0.014538338174843747,0.10713466154051807,
0.2509423488080387,0.05556962171298728,0.05554352344994119,0.03594380036744908,0.16987856035791674,0.0469276042146758,0.014563930423121874,0.10760687566579634,
0.251736470165028,0.055719886686643835,0.055516308923437,0.03608814517770734,0.17026441628684433,0.047033893889229746,0.014590136842565294,0.10807962492533321,
0.25253059152201374,0.05586640214543608,0.05548440368521013,0.036230990235876274,0.17064186271032408,0.047143626759446375,0.01461697817763698,0.10855291989017149,
0.25332471287900304,0.0560091153637664,0.05544780631787874,0.03637226446943115,0.17101090514546624,0.04725686099912947,0.014644475136183662,0.10902677248661241,
0.2541188342359888,0.05614797575028067,0.05540651859818977,0.03651189795901938,0.17137155468283297,0.047373654383436055,0.014672648377349128,0.10950119598479503,
0.2549129555929781,0.05628293486775791,0.05536054547379868,0.03664982198071947,0.1717238279825068,0.04749406425406257,0.014701518499393575,0.1099762049859263,
0.25570707694996386,0.05641394645155881,0.05530989503821022,0.03678596904724407,0.17206774726616575,0.04761814748435487,0.014731106027424001,0.11045181540816011,
0.25650119830695317,0.056540966426630195,0.05525457850391129,0.036920272948068864,0.17240334030516216,0.04774596044436074,0.014761431401040668,0.11092804447112478,
0.2572953196639389,0.056663952923063275,0.055194610173727676,0.03705266878846951,0.17273064040460348,0.04787755896584345,0.014792514961904799,0.11140491067909883,
0.25808944102092823,0.05678286629020458,0.05513000741043741,0.037183093027449945,0.17304968638343646,0.04801299830727506,0.014824376941232793,0.11188243380283516,
0.258883562377914,0.0568976691093198,0.055060790604674024,0.03731148351454569,0.1733605225505401,0.048152333118827946,0.014857037447222278,0.11236063486003503,
0.2596776837349033,0.05700832620481167,0.05498698314115407,0.03743777952548661,0.1736631986768327,0.048295617407382946,0.014890516452415443,0.11283953609447281,
0.26047180509188905,0.05711480465399425,0.054908611363263596,0.03756192179670446,0.17395776996340312,0.04844290450157254,0.014924833781005132,0.11331916095377353,
0.26126592644887836,0.05721707379542686,0.054825704536039355,0.03768385255867113,0.17424429700567834,0.048594247016877215,0.014960009096089296,0.1137995340658461,
0.2620600478058641,0.05731510523581218,0.054738294807580815,0.03780351556805397,0.174522845753641,0.0487496968207931,0.014996061886879446,0.11428068121397474,
0.2628541691628534,0.057408872855463894,0.054646417168929685,0.03792085613867553,0.17479348746811366,0.0489093049980891,0.015033011455868814,0.11476262931057259,
0.2636482905198392,0.05749835281235029,0.054550109412454396,0.038035821171265534,0.1750562986731285,0.04907312181617122,0.01507087690596602,0.11524540636960126,
0.26444241187682493,0.05758352354472156,0.05444941208877721,0.038148359181993524,0.175311361104403,0.049241196690572094,0.01510967712760006,0.11572904147766076,
0.26523653323381424,0.05766436577232924,0.05434436846228242,0.03825842032977156,0.1755587616539452,0.049413578150583004,0.015149430785802456,0.11621356476375531,
0.2660306545908,0.05774086249624714,0.05423502446524446,0.03836595644231641,0.17579859231081352,0.04959031380504591,0.015190156307272575,0.11669900736774022,
0.2668247759477893,0.05781299899730449,0.05412142865061528,0.0384709210409619,0.176030950098059,0.049771450308323056,0.015231871867431964,0.1171854014074563,
0.26761889730477506,0.057880762833142765,0.054003632143510255,0.03857326936421237,0.17625593700588002,0.049957033326461044,0.015274595377473853,0.11767277994455862,
0.26841301866176437,0.057944143833908356,0.053881688591433184,0.038672958390028794,0.17647365992101993,0.05014710750356643,0.015318344471413756,0.11816117694904706,
0.2692071400187501,0.058003134096594786,0.05375565411328061,0.03876994685684005,0.17668423055244284,0.050341716428410004,0.01536313649314737,0.11865062726250676,
0.27000126137573943,0.05805772797804846,0.05362558724716635,0.038864195283271945,0.1768877653533228,0.05054090260127635,0.015408988483521836,0.1191411665600674,
0.2707953827327252,0.058107922086653156,0.05349154889710723,0.038955665986587784,0.1770843854393844,0.05074470740107556,0.015455917167426583,0.1196328313110913,
0.2715895040897145,0.05815371527270865,0.05335360227861159,0.039044323099834584,0.17727421650363587,0.05095317105273371,0.015503938940909817,0.12012565873860084,
0.27238362544670025,0.05819510861752052,0.05321181286321247,0.03913013258768937,0.17745738872753516,0.05116633259487847,0.015553069858326963,0.12061968677745655,
0.27317774680368956,0.05823210542121827,0.053066248321987294,0.03921306226100124,0.1776340366886347,0.051384229847836714,0.015603325619527169,0.1211149540312981,
0.2739718681606753,0.05826471118931986,0.0529169784681064,0.03929308179002517,0.17780429926475058,0.05160689938196048,0.01565472155708411,0.12161149972826127,
0.2747659895176646,0.058292933618061295,0.052764075198453025,0.039370162716344165,0.17796831953470368,0.051834376486297754,0.015707272623577226,0.12210936367548494,
0.2755601108746504,0.05831678257851041,0.05260761243435747,0.03944427846347707,0.17812624467568383,0.05206669513762442,0.01576099337892959,0.12260858621242308,
0.2763542322316397,0.058336270099484944,0.052447666061488527,0.03951540434616995,0.17827822585728953,0.05230388796985423,0.015815897977808597,0.12310920816297763,
0.27714835358862544,0.05835141034929535,0.052284313868945366,0.03958351757836968,0.17842441813229679,0.05254598624384285,0.01587200015709558,0.12361127078646923,
0.27794247494561475,0.05836221961633312,0.052117635487592996,0.03964859727987895,0.1785649803242142,0.05279301981760251,0.015929313223430414,0.12411481572746373,
0.2787365963026005,0.058368716288526225,0.05194771232768481,0.03971062448169274,0.17870007491168247,0.0530450171169441,0.015987850040837224,0.12461988496447339,
0.2795307176595898,0.05837092083168287,0.05177462751581559,0.03976958213001692,0.17882986790977892,0.053302005106562765,0.016047623018437287,0.12512652075755312,
0.28032483901657557,0.058368855766746504,0.05159846583124851,0.03982545508897032,0.17895452874829076,0.05356400926158378,0.016108644098255097,0.1256347655948129,
0.2811189603735649,0.058362545645983886,0.05141931364165982,0.039878230141972816,0.1790742301470219,0.05383105353958521,0.016170924743123673,0.12614466213786926,
0.28191308173055063,0.05835201702812966,0.0512372588383447,0.039927895991821914,0.1791891479882008,0.054103160353113994,0.01623447592469507,0.12665625316625895,
0.28270720308753994,0.05833729845251008,0.051052390770927894,0.039974443259462096,0.1792994611860589,0.05438035054271197,0.016299308111562008,0.12716958152083985,
0.2835013244445257,0.05831842041216995,0.05086480018162251,0.04001786448145128,0.17940535155365245,0.05466264335046838,0.01636543125749669,0.12768469004620517,
0.284295445801515,0.05829541532602596,0.05067457913908061,0.040058154106129944,0.17950700366700115,0.05495005639411555,0.016432854789812656,0.12820162153213877,
0.28508956715850076,0.058268317510070826,0.050481820971878734,0.0400953084884991,0.1796046047266219,0.05524260564168429,0.01650158759785566,0.12872041865413936,
0.28588368851549006,0.058237163147652385,0.050286620201681495,0.040129325883814675,0.17969834441653637,0.0555403053867357,0.01657163802162954,0.1292411239130446,
0.2866778098724758,0.058201990258851796,0.05008907247612649,0.04016020643990598,0.1797884147608343,0.055843168224186085,0.016643013840563003,0.12976377957378613,
0.2874719312294616,0.05816283866898602,0.04988927450147313,0.0401879521882276,0.17987500997787767,0.05615120502674185,0.016715722262423342,0.13028842760330864,
0.2882660525864509,0.05811974997625905,0.04968732397505813,0.04021256703365447,0.17995832633223213,0.056464424921960896,0.016789769912383134,0.13081510960768766,
0.28906017394343664,0.05807276751858771,0.04948331951760004,0.0402340567430309,0.18003856198441515,0.056782835269957775,0.016865162822245938,0.131343866768481,
0.28985429530042595,0.05802193633962695,0.049277360605394775,0.04025242893248556,0.18011591683855405,0.05710644164176904,0.016941906419837092,0.13187473977835237,
0.2906484166574117,0.05796730315402065,0.04906954750244407,0.040267693053525136,0.1801905923880479,0.05743524779839629,0.017020005518565813,0.1324077687760048,
0.291442538014401,0.0579089163119038,0.04885998119255831,0.04027986037792036,0.18026279155933242,0.057769255670543855,0.017099464307164858,0.13294299328046488,
0.29223665937138676,0.05784682576268216,0.04864876331147513,0.040288943981399206,0.18033271855384608,0.058108465339068376,0.017180286339614145,0.13348045212476006,
0.2930307807283761,0.057781083018115666,0.048435996079034316,0.04029495872616308,0.18040057868830245,0.05845287501615775,0.017262474525254583,0.13402018338903146,
0.2938249020853618,0.05771174111473247,0.04822178223145,0.040297921242242705,0.18046657823337367,0.05880248102725738,0.01734603111909879,0.13456222433312887,
0.29461902344235114,0.05763885457560061,0.04800622495371993,0.040297849907711604,0.18053092425089404,0.05915727779376106,0.0174309577123452,0.13510661132873344,
0.2954131447993369,0.05756247937148419,0.04778942781221188,0.04029476482777588,0.18059382442969601,0.05951725781648485,0.01751725522310237,0.13565337979105727,
0.2962072661563262,0.05748267288141202,0.04757149468746686,0.04028868781276027,0.18065548692019193,0.05988241165994178,0.017604923887330395,0.1362025641101696,
0.29700138751331195,0.05739949385268605,0.04735252970725778,0.04027964235501141,0.18071612016781985,0.06025272793743598,0.01769396325000643,0.1367541975820013,
0.29779550887030126,0.05731300236035808,0.047132637179942545,0.04026765360474023,0.1807759327454736,0.06062819329699465,0.017784372156521545,0.1373083123390819,
0.298589630227287,0.057223259766202995,0.0469119215281498,0.04025274834482668,0.18083513318504088,0.0610087924081566,0.017876148744316173,0.13786493928106416,
0.2993837515842763,0.05713032867721713,0.04669048722283528,0.040234954964610485,0.1808939298081758,0.06139450794963631,0.017969290434761732,0.13842410800509347,
0.3001778729412621,0.05703427290367084,0.04646843871774624,0.040214303432693305,0.18095253055643418,0.06178532059788263,0.018063793925296036,0.13898584673608064,
0.3009719942982514,0.056935157416744785,0.04624588038433079,0.04019082526877814,0.1810111428209048,0.06218120901655135,0.018159655181820205,0.13955018225693988,
0.30176611565523714,0.05683304830577943,0.04602291644712892,0.040164553514572786,0.181069973271471,0.06258214984691095,0.018256869431365123,0.14011713983885385,
0.30256023701222645,0.05672801273516799,0.04579965091968112,0.040135522703785044,0.18112922768583875,0.06298811769920126,0.018355431155035427,0.14068674317163066,
0.3033543583692122,0.05662011890092278,0.04557618754099024,0.040103768831238396,0.18118911077847155,0.06339908514496449,0.01845533408123929,0.1412590142942183,
0.3041484797262015,0.056509435986945696,0.045352629712571375,0.04006932932113727,0.18124982602957235,0.0638150227103685,0.01855657117921224,0.14183397352544563,
0.30494260108318727,0.05639603412103349,0.045129080436124465,0.04003224299451215,0.1813115755142573,0.06423589887054162,0.018659134652843516,0.1424116393950574,
0.3057367224401766,0.05627998433064893,0.04490564225186336,0.03999255003587503,0.18137455973206623,0.06466168004493891,0.018763015934813526,0.14299202857511675,
0.30653084379716233,0.0561613584984891,0.04468241717753469,0.03995029195911681,0.1814389774369572,0.06509233059375896,0.01886820568105101,0.14357515581184552,
0.30732496515415164,0.05604022931788187,0.04445950664815929,0.03990551157267829,0.18150502546793332,0.06552781281543071,0.018974693765518635,0.14416103385797846,
0.3081190865111374,0.05591667024804218,0.04423701145652834,0.03985825294402755,0.18157289858045156,0.06596808694518912,0.019082469275335776,0.14474967340570502,
0.3089132078681267,0.055790755469219286,0.044015031694485604,0.03980856136347646,0.18164278927876418,0.06641311115475838,0.01919152050624741,0.14534108302027532,
0.30970732922511246,0.05566255983776689,0.04379366669502685,0.039756483307369944,0.18171488764934363,0.06686284155316154,0.019301834958447967,0.14593526907434873,
0.31050145058210177,0.05553215884116713,0.04357301497524636,0.03970206640068145,0.18178938119554308,0.06731723218867415,0.019413399332768977,0.14653223568316287,
0.3112955719390875,0.05539962855304007,0.043353174180160235,0.0396453593790491,0.1818664546736442,0.06777623505194001,0.019526199527239562,0.14713198464060165,
0.3120896932960733,0.0552650455881701,0.04313424102743528,0.03958641205028684,0.18194628993044434,0.068239800080266,0.019640220634028607,0.14773451535624244,
0.3128838146530626,0.0551284870575801,0.042916311253051544,0.03952527525540505,0.18202906574253386,0.06870787516311302,0.019755446936777443,0.14833982479346122,
0.31367793601004834,0.05499003052368478,0.04269947955792597,0.03946200082917578,0.1821149576574139,0.06918040614879896,0.01987186190833179,0.14894790740867597,
0.31447205736703765,0.054849753955554,0.0424838395555237,0.039396641560277244,0.18220413783660536,0.06965733685242906,0.019989448208881683,0.14955875509180713,
0.3152661787240234,0.054707735684316756,0.042269483720483156,0.03932925115105276,0.18229677490089663,0.07013860906506872,0.020108187684517883,0.15017235710803453,
0.3160603000810127,0.05456405435873665,0.04205650333827969,0.03925988417691923,0.1823930337778778,0.07062416256417228,0.020228061366213305,0.15078870004092912,
0.31685442143799847,0.05441878890098883,0.04184498845595245,0.039188596045460294,0.18249307555190677,0.07111393512528107,0.020349049469237674,0.1514077677370376,
0.3176485427949878,0.05427201846266869,0.04163502783391748,0.039115442955239166,0.18259705731665057,0.07160786253500273,0.020471131393013573,0.15202954125199744,
0.31844266415197353,0.0541238223810619,0.04142670889888986,0.039040481854366205,0.18270513203034464,0.07210587860528314,0.02059428572142185,0.15265399879825783,
0.31923678550896284,0.053974280135704905,0.04122011769793661,0.03896377039885609,0.18281744837390787,0.07260791518898119,0.02071849022356407,0.15328111569448144,
0.3200309068659486,0.05382347130526526,0.0410153388536812,0.03888536691080911,0.1829341506120524,0.0731139021967552,0.0208437218549896,0.1539108643167011,
0.3208250282229379,0.05367147552477013,0.0408124555206796,0.03880533033645133,0.18305537845752062,0.07362376761526934,0.020969956759394604,0.1545432140513029,
0.32161914957992366,0.05351837244321105,0.0406115493429871,0.03872372020406756,0.18318126693858283,0.07413743752672616,0.0210971702708,0.1551781312499069,
0.32241327093691297,0.05336424168155288,0.040412700412934,0.03864059658186125,0.18331194626992228,0.07465483612973141,0.02122533691621518,0.15581557918621342,
0.3232073922938987,0.05320916279117394,0.040215987231127515,0.038556020035775,0.1834475417270347,0.07517588576149496,0.02135443041879407,0.15645551801488283,
0.32400151365088803,0.05305321521276393,0.040021486667696435,0.038470051587304856,0.18358817352426351,0.07570050692137122,0.021484423701489667,0.15709790473251364,
0.3247956350078738,0.05289647823570572,0.03982927392479406,0.03838275267134159,0.18373395669659034,0.07622861829574032,0.021615288891213245,0.157742693140782,
0.3255897563648631,0.05273903095796635,0.039639422500374104,0.038294185094071405,0.18388500098529514,0.07676013678423049,0.021746997323503672,0.15838983381180302,
0.32638387772184885,0.05258095224652201,0.03945200415325346,0.03820441099096811,0.18404141072759866,0.07729497752728065,0.02187951954771226,0.15903927405577356,
0.32717799907883816,0.052422320698341206,0.03926708886947477,0.03811349278490888,0.18420328475039405,0.07783305393504036,0.022012825332708243,0.1596909578909518,
0.3279721204358239,0.05226321460194946,0.039084744829980665,0.03802149314444448,0.1843707162681728,0.07837427771760365,0.022146883673109487,0.16034482601602773,
0.3287662417928132,0.052103711899598,0.0389050383796113,0.037928474942255,0.18454379278524513,0.07891855891657062,0.022281662796042857,0.1610008157849356,
0.329560363149799,0.05194389015005827,0.03872803399743516,0.03783450121382117,0.184722596002351,0.07946580593793079,0.022417130168438305,0.16165886118415757,
0.3303544845067883,0.05178382649206307,0.03855379426842313,0.0377396351163414,0.18490720172775424,0.08001592558625924,0.02255325250486024,0.1623188928125641,
0.33114860586377404,0.05162359760841453,0.03838237985647457,0.0376439398879235,0.18509767979290792,0.08056882310021625,0.022689995775879584,0.1629808378638353,
0.33194272722076335,0.05146327969077807,0.038213849478803255,0.03754747880708008,0.1852940939727756,0.08112440218933867,0.02282732521698933,0.16364462011150374,
0.3327368485777491,0.05130294840518054,0.03804825988169055,0.03745031515255579,0.18549650191088843,0.08168256507211066,0.022965205338066175,0.16431015989665665,
0.3335309699347384,0.05114267885822998,0.037885665817612144,0.037352512163514026,0.18570495504921405,0.08224321251529988,0.023103599933380427,0.1649773741183338,
0.33432509129172416,0.05098254556407326,0.037726120023743925,0.03725413300011009,0.18591949856290899,0.08280624387454326,0.023242472092155846,0.16564617622665342,
0.3351192126487099,0.0508226224121071,0.037569673201851644,0.037155240704477364,0.1861401713000224,0.08337155713616512,0.02338178420968088,0.166316476218696,
0.3359133340056992,0.05066298263545664,0.037416373999568535,0.037055898162152275,0.18636700572621318,0.08393904896020957,0.0235214979989722,0.16698818063717352,
0.336707455362685,0.05050369878023486,0.0372662689930637,0.03695616806396317,0.18660002787454008,0.0845086147246671,0.02366157450299112,0.16766119257190817,
0.3375015767196743,0.050344842675595435,0.03711940267110384,0.036856112868407696,0.18683925730037818,0.08508014857087443,0.02380197410741311,0.16833541166414326,
0.33829569807666005,0.05018648540459014,0.036975817420509725,0.03675579476454249,0.18708470704151198,0.08565354345006414,0.023942656553950094,0.1690107341137051,
0.33908981943364935,0.05002869727584129,0.03683555351300794,0.03665527563540822,0.18733638358345048,0.08622869117104114,0.02408358095422498,0.1696870526890324,
0.3398839407906351,0.04987154779603793,0.03669864909347788,0.03655461702201269,0.18759428683000517,0.08680548244895991,0.02422470580419738,0.17036425674008715,
0.3406780621476244,0.04971510564326448,0.0365651401695927,0.036453880087893256,0.1878584100791673,0.08738380695517649,0.024365988999139016,0.17104223221415943,
0.34147218350461017,0.04955943864116846,0.036435060602852565,0.03635312558427969,0.18812874000431604,0.08796355336814696,0.024507387849157042,0.17172086167457445,
0.3422663048615995,0.04940461373397357,0.03630844210100733,0.036252413815877564,0.18840525664078578,0.08854460942534342,0.02464885909526295,0.1724000243223096,
0.34306042621858523,0.04925069696234299,0.03618531421186529,0.036151804607291456,0.1886879333778155,0.08912686197615738,0.02479035892598442,0.17307959602052522,
0.34385454757557454,0.04909775344009714,0.03606570431848369,0.0360513572701065,0.18897673695589867,0.08971019703575886,0.02493184299451698,0.17375944932201146,
0.3446486689325603,0.0489458473317888,0.03594963763573579,0.03595113057064588,0.18927162746954804,0.09029449983987918,0.02507326643641193,0.17443945349955314,
0.3454427902895496,0.04879504183113764,0.0358371372082486,0.035851182698421226,0.1895725583754853,0.09087965490048389,0.025214583887796446,0.17511947457920843,
0.34623691164653536,0.04864539914032532,0.03572822390970448,0.0357515712352918,0.1898794765062608,0.09146554606230127,0.0253557495041215,0.1757993753764997,
0.34703103300352467,0.048496980450151016,0.035622916443499145,0.03565235312534777,0.19019232208930328,0.0920520565601715,0.025496716979432447,0.17647901553550865,
0.3478251543605104,0.04834984592104687,0.0355212313447477,0.035553584645531856,0.19051102877139703,0.09263906907717928,0.025637439566157043,0.1771582515708689,
0.34861927571749973,0.04820405466495161,0.035423182983629786,0.03545532137701291,0.19083552364857678,0.09322646580353336,0.02577787009540485,0.17783693691264488,
0.3494133970744855,0.0480596647280397,0.03532878357006376,0.035357618177324066,0.191165727301428,0.09381412849615432,0.02591796099777161,0.17851492195408544,
0.3502075184314748,0.047916733074302845,0.03523804315969927,0.035260529153277244,0.19150155383577544,0.09440193853893201,0.026057664324641707,0.1791920541022389,
0.35100163978846055,0.04777531556997966,0.03515096966121672,0.03516410763466509,0.19184291092873737,0.09498977700361243,0.02619693176998124,0.17986817783141193,
0.35179576114544986,0.047635466968828664,0.03506756884492142,0.035068406148760514,0.19218969988011977,0.09557752471127384,0.026335714692613855,0.18054313473945593,
0.3525898825024356,0.04749724089823889,0.03498784435261934,0.03497347639562307,0.19254181566911813,0.09616506229435005,0.026473964138970768,0.18121676360686095,
0.3533840038594249,0.047360689846171776,0.03491179770876083,0.03487936922422102,0.19289914701629302,0.09675227025915889,0.026611630866306035,0.18188890045863546,
0.3541781252164107,0.04722586514892749,0.0348394283328377,0.034786134609376504,0.19326157645077854,0.09733902904889294,0.02674866536636757,0.1825593786289495,
0.3549722465734,0.0470928169797278,0.03477073355301845,0.034693821629541,0.19362898038267848,0.09792521910702848,0.026885017889513668,0.18322802882851552,
0.35576636793038574,0.046961594338107655,0.03470570862100552,0.03460247844540715,0.1940012291806006,0.098510720941109,0.027020638469264606,0.18389467921468056,
0.35656048928737505,0.04683224504010648,0.03464434672809787,0.03451215227936236,0.19437818725427525,0.09909541518685787,0.02715547694727785,0.1845591554641999,
0.3573546106443608,0.046704815709249926,0.034586639022441336,0.03442288939578871,0.194759713142199,0.09967918267257478,0.027289482998735307,0.18522128084866227,
0.35814873200134656,0.04657935176831229,0.034532574627448596,0.03433473508221303,0.19514565960423885,0.10026190448376998,0.027422606158129987,0.18588087631253364,
0.35894285335833587,0.04645589743184922,0.03448214066136988,0.03424773363131028,0.19553587371912903,0.10084346202798909,0.027554795845439243,0.1865377605537847,
0.3597369747153216,0.04633449569949004,0.03443532225799463,0.034161928323762476,0.19593019698678749,0.10142373709978146,0.02768600139267095,0.1871917501070649,
0.36053109607231093,0.04621518834997854,0.03439210258846416,0.03407736141197489,0.19632846543537336,0.10200261194576421,0.027816172070768353,0.1878426594293833,
0.3613252174292967,0.04609801593595075,0.03435246288417399,0.03399407410465025,0.19673050973300252,0.1025799693297333,0.027945257116858985,0.1884903009882553,
0.362119338786286,0.04598301777943769,0.03431638246074464,0.033912106552221224,0.19713615530403386,0.10315569259777303,0.028073205761832008,0.18913448535227023,
0.36291346014327175,0.0458702319680809,0.034283838743038565,0.03383149783314048,0.1975452224498349,0.10372966574331437,0.028199967258228223,0.1897750212840338,
0.36370758150026106,0.04575969535204797,0.03425480729120029,0.03375228594102722,0.19795752647392967,0.10430177347209257,0.028325490908425965,0.19041171583543576,
0.3645017028572468,0.0456514435416354,0.034229261827696554,0.03367450777266807,0.19837287781142765,0.10487190126695457,0.02844972609310582,0.1910443744451908,
0.3652958242142361,0.04554551090554537,0.03420717426533233,0.03359819911686987,0.19879108216262847,0.10543993545246522,0.028572622299976362,0.1916728010385982,
0.3660899455712219,0.04544193056982314,0.03418851473621816,0.0335233946441609,0.19921194063069314,0.10600576325926221,0.02869412915274262,0.1922967981294626,
0.3668840669282112,0.04534073441744148,0.03417325162166371,0.03345012789733701,0.19963524986326722,0.10656927288810913,0.028814196440298184,0.19291616692411598,
0.36767818828519694,0.045241953088517965,0.03416135158297223,0.03337843128284766,0.20006080219793973,0.10713035357359603,0.02893277414612173,0.19353070742747738,
0.36847230964218625,0.04514561598115134,0.03415277959310951,0.0333083360630172,0.20048838581141493,0.10768889564743679,0.029049812477857758,0.19414021855108432,
0.369266430999172,0.04505175125286249,0.0341474989692209,0.033239872349095465,0.20091778487227263,0.1082447906013131,0.029165261897061135,0.19474449822302797,
0.3700605523561613,0.04496038582262564,0.034145471405969574,0.033173069095131506,0.2013487796971876,0.10879793114921404,0.02927907314908441,0.19534334349972063,
0.37085467371314706,0.044871545373475305,0.034146657009668395,0.033107954092663795,0.2017811469104765,0.109348211289221,0.029391197293086483,0.19593655067942134,
0.3716487950701364,0.04478525435567441,0.03415101433317799,0.033044553966219505,0.20221465960683763,0.1098955263646875,0.029501585732140508,0.19652391541744238,
0.37244291642712213,0.04470153599042866,0.03415850041154249,0.03298289416961525,0.20264908751714522,0.11043977312476426,0.029610190243418898,0.19710523284295764,
0.37323703778411144,0.04462041227413264,0.03416907079833471,0.0329229989830509,0.20308419717715726,0.11098084978421952,0.029716963008432358,0.19768029767732964,
0.3740311591410972,0.0445419039831327,0.03418267960268203,0.03286489151098761,0.2035197520989939,0.11151865608250529,0.029821856643299845,0.19824890435387268,
0.3748252804980865,0.0444660306789919,0.034199279526943724,0.03280859368080112,0.20395551294524034,0.11205309334202038,0.02992482422902588,0.19881084713896321,
0.37561940185507225,0.044392810714241754,0.034218821905010494,0.03275412624220025,0.20439123770552584,0.11258406452552132,0.030025819341761285,0.19936592025440952,
0.37641352321206156,0.044322261238606026,0.03424125674119667,0.03270150876740079,0.20482668187542946,0.11311147429263355,0.03012479608302306,0.19991391800098823,
0.3772076445690473,0.044254398205681535,0.034266532749695405,0.0326507596520441,0.2052615986375605,0.11363522905541473,0.030221709109848963,0.2004546348830537,
0.3780017659260366,0.044189236380061066,0.034294597394566834,0.03260189611684943,0.2056957390446597,0.11415523703292375,0.030316513664861953,0.200987865734126,
0.3787958872830224,0.04412678934488323,0.03432539693022904,0.03255493420998861,0.20612885220456698,0.11467140830474812,0.030409165606219493,0.20151340584335897,
0.3795900086400117,0.04406706950979431,0.03435887644242162,0.03250988881017133,0.20656068546689768,0.11518365486344494,0.03049962143742247,0.20203105108278993,
0.38038412999699744,0.0440100881193069,0.03439497988961144,0.032466773630428894,0.20699098461127216,0.11569189066584923,0.03058783833695838,0.20254059803527014,
0.3811782513539832,0.04395585526154076,0.034433650144809945,0.032425601222584075,0.20741949403693807,0.11619603168320607,0.030673774187753126,0.203041844122976,
0.3819723727109725,0.04390437987733057,0.03447482903777152,0.03238638298239413,0.20784595695362734,0.11669599595008301,0.030757387606405697,0.20353458773639677,
0.38276649406795826,0.04385566976968559,0.0345184573975423,0.03234912915535398,0.20827011557348774,0.11719170361201926,0.030838637972179915,0.20401862836369686,
0.38356061542494757,0.043809731613586415,0.034564475095328326,0.03231384884314613,0.20869171130392816,0.11768307697187012,0.03091748545572728,0.20449376672034675,
0.3843547367819333,0.04376657096610376,0.03461282108765264,0.032280550010723594,0.2091104849412164,0.11817004053480455,0.030993891047514974,0.20495980487891982,
0.38514885813892263,0.04372619227682451,0.03466343345977015,0.0322492394940118,0.2095261768646676,0.11865252105191601,0.03106781658593287,0.2054165463989485,
0.3859429794959084,0.04368859889857016,0.034716249469309686,0.03221992300821514,0.20993852723126194,0.11913044756240618,0.031139224785053533,0.20586379645673472,
0.3867371008528977,0.04365379309839264,0.034771205590112195,0.03219260515671378,0.21034727617052967,0.11960375143430309,0.031208079262019087,0.20630136197500892,
0.38753122220988345,0.04362177606883319,0.03482823755623471,0.03216728944053571,0.2107521639795409,0.12007236640367495,0.03127434456402899,0.20672905175233125,
0.38832534356687276,0.04359254793942907,0.03488728040608898,0.032143978268389134,0.2111529313178393,0.12053622861230247,0.03133798619490268,0.20714667659212915,
0.3891194649238585,0.04356610778845395,0.03494826852668449,0.032122672967240064,0.21154931940215688,0.12099527664377269,0.03139897064119134,0.20755404943126543,
0.3899135862808478,0.04354245365487699,0.03501113569794525,0.032103373793419335,0.21194107020074987,0.12144945155795873,0.031457265397812975,0.20795098546802998,
0.3907077076378336,0.04352158255052643,0.03507581513707012,0.03208607994424384,0.21232792662719435,0.12189869692385005,0.03151283899318532,0.208337302289449,
0.3915018289948229,0.04350349047244307,0.03514223954290656,0.03207078957013572,0.21270963273348142,0.12234295885069892,0.031565661013831084,0.20871281999780644,
0.39229595035180864,0.04348817241540923,0.035210341140307765,0.03205749978722376,0.21308593390225344,0.12278218601744983,0.031615702128430595,0.20907736133627164,
0.39309007170879795,0.043475622384639125,0.035280051724443685,0.03204620669041069,0.21345657703802204,0.12321632970041925,0.031662934111296906,0.20943075181352724,
0.3938841930657837,0.04346583340861615,0.035351302705036405,0.03203690536689012,0.21382131075721145,0.12364534379919377,0.031707329865248726,0.2097728198272925,
0.394678314422773,0.04345879755206328,0.035424025150490805,0.0320295899100967,0.21417988557686993,0.12406918486071661,0.031748863443856946,0.2101033967866375,
0.39547243577975877,0.04345450592903206,0.035498149831891604,0.032024253434072864,0.21453205410189444,0.12448781210153304,0.031787510073040884,0.21042231723298355,
0.3962665571367481,0.04345294871609669,0.03557360726683848,0.03202088808823563,0.21487757121061576,0.12490118742816585,0.031823246171990775,0.21072941895968583,
0.39706067849373383,0.0434541151656392,0.035650327763091044,0.03201948507252679,0.2152161942385896,0.12530927545559392,0.03185604937339341,0.21102454313009553,
0.39785479985072314,0.043457993619211904,0.03572824146199602,0.03202003465292966,0.21554768316044495,0.1257120435238073,0.0318858985429382,0.2113075343939981,
0.3986489212077089,0.04346457152096369,0.035807278381669486,0.03202252617733587,0.21587180076964013,0.12610946171241413,0.03191277379808159,0.21157824100232775,
0.3994430425646982,0.0434738354311168,0.03588736845990714,0.03202694809174537,0.21618831285597923,0.12650150285327544,0.031936656526048095,0.21183651492005606,
0.40023716392168396,0.04348577103948086,0.035968441596796505,0.032033287956783056,0.2164969883807441,0.12688814254114497,0.0319575294010468,0.21208221193715704,
0.40103128527867327,0.04350036317899129,0.036050427697005095,0.032041532464515445,0.21679759964930095,0.12726935914229348,0.03197537640068291,0.21231519177754973,
0.401825406635659,0.04351759583925914,0.03613325671171953,0.03205166745555085,0.21708992248104023,0.1276451338010966,0.0319901828215442,0.21253531820592303,
0.40261952799264833,0.04353745218012028,0.03621685868021058,0.03206367793640684,0.2173737363765125,0.12801545044456844,0.03200193529394337,0.21274245913234838,
0.4034136493496341,0.04355991454517153,0.036301163771000414,0.032077548097128636,0.21764882468162722,0.1283802957848231,0.032010621795797445,0.21293648671458767,
0.4042077707066234,0.043584964475282206,0.03638610232260851,0.032093261329142475,0.21791497474878244,0.12873965931944856,0.03201623166562664,0.21311727745800532,
0.40500189206360915,0.04361258272206947,0.03647160488385351,0.03211080024332794,0.21817197809479894,0.12909353332977774,0.032018755614655475,0.21328471231299823,
0.4057960134205949,0.04364274926132663,0.03655760225368897,0.03213014668829378,0.2184196305555346,0.12944191287704387,0.03201818573799975,0.21343867676985606,
0.4065901347775842,0.04367544330639358,0.03664402552055191,0.03215128176884161,0.21865773243705808,0.12978479579640784,0.03201451552492396,0.21357906095097035,
0.40738425613456997,0.04371064332145934,0.0367308061012034,0.032174185864602294,0.21888608866326595,0.13012218268884765,0.03200773986815443,0.21370575970031044,
0.4081783774915593,0.043748327034786816,0.036817875779041505,0.0321988386488298,0.21910450891982966,0.1304540769109012,0.03199785507223434,0.2138186726700901,
0.40897249884854503,0.0437884714518505,0.03690516674186743,0.032225219107337805,0.2193128077943636,0.13078048456225472,0.031984858860907676,0.21391770440454944,
0.40976662020553434,0.04383105286837816,0.03699261161908657,0.03225330555756422,0.21951080491270947,0.13110141447117163,0.03196875038352005,0.21400276442078084,
0.4105607415625201,0.04387604688328835,0.037080143518326884,0.03228307566774947,0.2196983250712337,0.1314168781777579,0.031949530220425175,0.21407376728653074,
0.4113548629195094,0.04392342841151556,0.03716769606145795,0.03231450647621394,0.21987519836504274,0.1317268899150612,0.03192720038738655,0.21413063269491125,
0.41214898427649516,0.043973171696715954,0.037255203419994685,0.03234757441072112,0.22004126031202045,0.1320314665880033,0.03190176433896525,0.2141732855359592,
0.41294310563348446,0.044025250323846576,0.03734260034987052,0.03238225530791206,0.2201963519726002,0.13233062775014626,0.03187322697088515,0.21420165596498428,
0.4137372269904702,0.04407963723161178,0.03742982222556558,0.03241852443279813,0.220340320065185,0.13262439557829633,0.0318415946213682,0.2142156794676483,
0.4145313483474595,0.044136304724771196,0.037516805073576354,0.03245635649829843,0.2204730170771342,0.1329127948449494,0.03180687507143332,0.21421529692172409,
0.4153254697044453,0.044195224486303766,0.037603485605213746,0.032495725684809046,0.22059430137124075,0.13319585288858382,0.03176907754415323,0.21420045465548315,
0.4161195910614346,0.044256367589423196,0.03768980124871784,0.032536605659791044,0.22070403728762508,0.1334735995818102,0.03172821270286497,0.21417110450266563,
0.41691371241842035,0.04431970450944077,0.03777569018067766,0.03257896959736466,0.22080209524097905,0.13374606729738678,0.03168429264833043,0.2141272038539881,
0.41770783377540965,0.0443852051354719,0.037861091356745785,0.0326227901978973,0.22088835181309355,0.1340132908721139,0.031637330914844504,0.21406871570514843,
0.4185019551323954,0.04445283878198326,0.037945944541637695,0.032668039707573246,0.22096268984061146,0.1342753075686208,0.031587342465289596,0.21399560870128945,
0.4192960764893847,0.04452257420017815,0.038030190338407106,0.03271468993793292,0.2210249984979498,0.13453215703506236,0.031534343685136024,0.21390785717788588,
0.42009019784637047,0.04459437958921815,0.03811377021698892,0.03276271228537022,0.22107517337534047,0.13478388126274427,0.031478352375389346,0.21380544119802292,
0.4208843192033598,0.044668222607279706,0.03819662654200236,0.03281207775057645,0.2211131165519431,0.13503052454169795,0.03141938774448644,0.21368834658603686,
0.42167844056034554,0.044744070382444844,0.03827870259980747,0.032862756957919605,0.2211387366639892,0.13527213341422886,0.03135747039914344,0.21355656495749062,
0.42247256191733484,0.044821889523425765,0.03835994262480906,0.03291472017474809,0.2211519489679208,0.13550875662646483,0.03129262233415971,0.2134100937454619,
0.4232666832743206,0.04490164613012344,0.03844029182500273,0.03296793733060821,0.2211526753984923,0.13574044507793315,0.031224866921183314,0.2132489362231231,
0.4240608046313099,0.04498330580402129,0.038519696406758556,0.033022378036365145,0.22114084462180916,0.13596725176919827,0.0311542288964443,0.21307310152259668,
0.42485492598829566,0.04506683365841482,0.038598103598838425,0.03307801160321728,0.22111639208328274,0.13618923174759523,0.031080734347463702,0.21288260465007158,
0.42564904734528497,0.045152194328479486,0.0386754616756439,0.03313480706159408,0.2210792600504859,0.1364064420510952,0.03100441069874706,0.21267746649717034,
0.4264431687022707,0.04523935198117888,0.038751719979692095,0.033192733179928234,0.2210293976508989,0.13661894165034488,0.030925286696472515,0.2124577138485602,
0.42723729005926003,0.04532827032501614,0.038826828943317813,0.0332517584832929,0.22096676090454012,0.13682679138892234,0.030843392392184827,0.2122233793858057,
0.4280314114162458,0.04541891261963204,0.0389007401096005,0.03331185127189534,0.22089131275148347,0.1370300539218567,0.03075875912550763,0.2119745016874627,
0.42882553277323154,0.04551124168525365,0.038973406152515516,0.033372979639418536,0.22080302307426777,0.1372287936524607,0.03067141950588765,0.21171112522541785,
0.42961965413022085,0.045605219911997986,0.03904478089630963,0.033435111491202776,0.22070186871521005,0.13742307666752973,0.030581407393385628,0.2114333003574825,
0.4304137754872066,0.045700809269035546,0.0391148193341015,0.03349821456225977,0.22058783348864017,0.13761297067096245,0.030488757878529903,0.21114108331625192,
0.4312078968441959,0.045797971313619394,0.03918347764570776,0.0335622564351121,0.22046090818808017,0.137798544915864,0.03039350726124983,0.2108345361942475,
0.43200201820118167,0.04589666719998583,0.039250713214696774,0.03362720455745118,0.22032109058839822,0.1379798701351929,0.030295693028907427,0.21051372692536177,
0.432796139558171,0.04599685768813333,0.03931648464467169,0.03369302625960771,0.2201683854429703,0.13815701847101794,0.03019535383344657,0.21017872926263081,
0.43359026091515673,0.04609850315248676,0.039380751774785505,0.03375968877182872,0.22000280447589185,0.13833006340245388,0.030092529467680502,0.2098296227523629,
0.43438438227214604,0.046201563590454964,0.03944347569449087,0.03382715924135603,0.21982436636928487,0.138499079672347,0.0299872608407393,0.20946649270465723,
0.4351785036291318,0.04630599863088988,0.03950461875752805,0.03389540474930115,0.21963309674575243,0.13866414321278683,0.02987958995270002,0.20908943016034992,
0.4359726249861211,0.046411767542456274,0.03956414459515455,0.03396439232731249,0.21942902814603749,0.1388253310695205,0.02976955986842351,0.2086985318544293,
0.43676674634310686,0.046518829241921515,0.03962201812862041,0.03403408897403079,0.2192122000019489,0.1389827213253524,0.029657214690622543,0.20829390017596688,
0.43756086770009617,0.04662714230237575,0.039678205580893265,0.0341044616713295,0.21898265860462165,0.13913639302261221,0.02954259953218715,0.2078756431246144,
0.4383549890570819,0.04673666496139287,0.03973267448763768,0.03417547740033695,0.2187404570681828,0.13928642608477812,0.02942576048779356,0.20744387426372127,
0.43914911041407123,0.04684735512914346,0.03978539370745354,0.03424710315723752,0.21848565528890054,0.1394329012373449,0.029306744604824377,0.20699871267013062,
0.439943231771057,0.046959170396471545,0.03983633343137822,0.03431930596884974,0.21821831989989623,0.13957589992802907,0.029185599853628088,0.20654028288071616,
0.4407373531280463,0.04707206804294685,0.03988546519165785,0.03439205290797904,0.21793852422150461,0.13971550424640572,0.029062375097147042,0.20606871483572506,
0.44153147448503205,0.04718600504490514,0.03993276186979284,0.03446531110854383,0.2176463482073707,0.13985179684307308,0.028937120059943512,0.2055841438189967,
0.44232559584202136,0.04730093808348917,0.03997819770386289,0.03453904778047313,0.2173418783863765,0.13998486084844472,0.028809885296654285,0.20508671039512938,
0.4431197171990071,0.047416823552703435,0.04002174829513722,0.034613230224374764,0.21702520780049267,0.14011477979126918,0.028680722159904404,0.2045765603436713,
0.4439138385559964,0.04753361756749547,0.040063390613975174,0.034687825845973165,0.216696435938655,0.14024163751698013,0.028549682767711852,0.2040538445904136,
0.4447079599129822,0.04765127597187727,0.040103103005023455,0.03476280217031589,0.21635566866676686,0.14036551810597986,0.02841681997041474,0.20351871913586836,
0.4455020812699715,0.047769754347100034,0.04014086519171502,0.03483812685574853,0.2160030181539327,0.14048650579196256,0.028282187317153526,0.2029713449810141,
0.44629620262695724,0.047889008019895984,0.040176658280075876,0.03491376770765748,0.21563860279502925,0.1406046848803825,0.02814583902194064,0.20241188805039545,
0.44709032398394655,0.048008992070800775,0.040210464761845456,0.03498969269198027,0.21526254712972415,0.14072013966717464,0.028007829929350508,0.2018405191126657,
0.4478844453409323,0.0481296613425701,0.040242268516916084,0.03506586994848337,0.2148749817580526,0.14083295435783474,0.027868215479862974,0.2012574136986615,
0.4486785666979216,0.04825097044870397,0.040272054815097616,0.03514226780380755,0.21447604325266553,0.14094321298696721,0.027727051674893324,0.20066275201710135,
0.44947268805490737,0.04837287378209238,0.04029981031721276,0.0352188547842809,0.21406587406786273,0.14105099933840923,0.027584395041542267,0.20005671886799964,
0.4502668094118967,0.0484953255237958,0.04032552307552908,0.035295599628499645,0.21364462244552598,0.14115639686603804,0.02744030259709903,0.19943950355389017,
0.45106093076888243,0.04861827965197393,0.04034918253353302,0.03537247129967727,0.21321244231806824,0.1412594886153703,0.027294831813330978,0.19881129978895312,
0.4518550521258682,0.04874168995097602,0.04037077952505162,0.035449438997762074,0.21276949320851546,0.14136035714605968,0.027148040580592843,0.19817230560614002,
0.4526491734828575,0.04886551002060599,0.040390306272727425,0.03552647217132373,0.21231594012783744,0.14145908445539976,0.026999987171788697,0.19752272326239195,
0.45344329483984325,0.04898969328557532,0.04040775638585183,0.035603540529209485,0.21185195346964428,0.14155575190293715,0.026850730206219416,0.19686275914204585,
0.45423741619683256,0.04911419300515658,0.04042312485756231,0.03568061405197021,0.21137770890236532,0.14165044013629832,0.02670032861334837,0.1961926236585244,
0.4550315375538183,0.049238962283050115,0.04043640806140856,0.035757663003057216,0.21089338725902676,0.14174322901833372,0.026548841596517724,0.19551253115440428,
0.4558256589108076,0.04936395407747641,0.040447603747292706,0.03583465793979012,0.21039917442474368,0.14183419755567986,0.026396328596647353,0.19482269979995676,
0.4566197802677934,0.049489121211505865,0.04045671103678832,0.03591156972409672,0.2098952612220426,0.1419234238288377,0.026242849255948202,0.1941233514902558,
0.4574139016247827,0.04961441638363785,0.040463730417843395,0.03598836953302534,0.20938184329412812,0.1420109849238656,0.026088463381681314,0.19341471174094688,
0.45820802298176844,0.04973979217864043,0.040468663738871626,0.0360650288690305,0.20885912098620696,0.14209695686578055,0.025933230909993582,0.19269700958276936,
0.45900214433875774,0.04986520107866163,0.04047151420223685,0.03614151957003241,0.20832729922498192,0.14218141455376074,0.025777211869860588,0.19197047745492485,
0.4597962656957435,0.0499905954746228,0.04047228635713477,0.036217813819250974,0.2077865873964254,0.14226443169823855,0.025620466347166634,0.19123535109738182,
0.4605903870527328,0.050115927677903994,0.04047098609187677,0.03629388415481527,0.20723719922194275,0.14234608075997116,0.025463054448951406,0.1904918694422069,
0.46138450840971856,0.050241149932331156,0.040467620625580056,0.03636970347914882,0.20667935263303214,0.14242643289117204,0.02530503626785232,0.18974027450401076,
0.46217862976670787,0.05036621442647373,0.04046219849926816,0.03644524506813171,0.2061132696445466,0.1425055578787852,0.025146471846770872,0.18898081126959573,
0.4629727511236936,0.05049107330626142,0.040454729566386315,0.0365204825800399,0.20553917622666232,0.14258352408997862,0.024987421143791065,0.18821372758689006,
0.46376687248068293,0.05061567868792799,0.04044522498273583,0.03659539006426225,0.204957302175654,0.14266039841993233,0.024827943997377006,0.1874392740532523,
0.4645609938376687,0.05073998267128898,0.04043369719583137,0.03666994196979591,0.20436788098357747,0.14273624624199058,0.024668100091876356,0.18665770390322822,
0.465355115194658,0.050863937353360075,0.040420159933685654,0.03674411315352027,0.20377114970695664,0.1428111313602465,0.0245079489233558,0.18586927289583857,
0.46614923655164375,0.05098749484232188,0.040404628193025524,0.03681787888824998,0.20316734883456955,0.1428851159646222,0.024347549765793834,0.18507423920147664,
0.46694335790863306,0.051110607271836056,0.04038711822694374,0.03689121487056707,0.2025567221544267,0.1429582605885035,0.024186961637655775,0.18427286328849118,
0.4677374792656188,0.051233226815717216,0.04036764753199067,0.036964097228432434,0.20193951662003176,0.14303062406898637,0.02402624326887503,0.18346540780952778,
0.4685316006226081,0.05135530570296391,0.0403462348347104,0.0370365025285769,0.20131598221601285,0.14310226350978592,0.023865453068264132,0.1826521374877012,
0.4693257219795939,0.05147679623315147,0.0403229000776256,0.037108407783671686,0.20068637182321078,0.1431732342468569,0.023704649091378326,0.18183331900266797,
0.4701198433365832,0.05159765079218863,0.04029766440467597,0.03717979045927816,0.20005094108330781,0.14324358981676866,0.023543889008853795,0.1810092208766669,
0.47091396469356894,0.051717821868438624,0.04027055014611476,0.03725062848057695,0.1994099482630781,0.1433133819278747,0.023383230075242054,0.18018011336059261,
0.47170808605055825,0.051837262069205,0.04024158080286852,0.03732090023887569,0.19876365411833943,0.14338266043431258,0.023222729098361174,0.17934626832016573,
0.472502207407544,0.05195592413758136,0.04021078103036509,0.037390584597895626,0.19811232175768337,0.14345147331286506,0.023062442409183967,0.1785079591222625,
0.4732963287645333,0.05207376096966337,0.04017817662183506,0.037459660899836225,0.1974562165060591,0.1435198666427103,0.02290242583228249,0.17766546052146248,
0.47409045012151907,0.052190725632120544,0.04014379449109217,0.03752810897121754,0.19679560576828314,0.1435878845880827,0.02274273465684766,0.176819048546873,
0.4748845714785084,0.05230677138012417,0.04010766265479846,0.03759590912850003,0.19613075889254658,0.1436555693838646,0.02258342360830191,0.17596900038928692,
0.47567869283549413,0.052421851675627136,0.04006981021422002,0.03766304218348115,0.1954619470339884,0.1437229613241216,0.02242454682052227,0.1751155942887286,
0.4764728141924799,0.05253592020599033,0.040030267336479415,0.037729489448468274,0.19478944301840231,0.1437900987535926,0.022266157808690568,0.17425910942244144,
0.4772669355494692,0.05264893090294953,0.03998906523531127,0.0377952327412275,0.1941135212061422,0.1438570180621393,0.022108309442786567,0.17339982579336877,
0.47806105690645495,0.05276083796191579,0.039946236151327696,0.0378602543897078,0.19343445735628975,0.1439237536821569,0.021951053921739537,0.17253802411917907,
0.47885517826344426,0.05287159586160135,0.0399018133318005,0.03792453723654042,0.19275252849114577,0.1439903380889434,0.02179444274825279,0.17167398572188355,
0.47964929962043,0.05298115938396259,0.039855831009967396,0.03798806464331289,0.19206801276110635,0.14405680180401936,0.02163852670431523,0.17080799241809547,
0.4804434209774193,0.053089483634450166,0.03980832438386973,0.0380508204946177,0.1913811893099817,0.1441231734013879,0.02148335582741322,0.16994032640997653,
0.4812375423344051,0.05319652406255636,0.0397593295947295,0.03811278920187528,0.19069233814081624,0.14418947951671815,0.021328979387455434,0.16907127017691728,
0.4820316636913944,0.05330223648264838,0.03970888370487401,0.03817395570693155,0.1900017399822661,0.14425574485943313,0.021175445864422743,0.16820110636799468,
0.48282578504838014,0.053406577095075805,0.03965702467521659,0.03823430548542993,0.18930967615558786,0.14432199222767708,0.021022802926754413,0.16733011769525136,
0.48361990640536945,0.05350950250753954,0.039603791342302075,0.0382938245499583,0.18861642844229334,0.14438824252613533,0.020871097410481505,0.16645858682783807,
0.4844140277623552,0.05361096975670861,0.03954922339492627,0.03835249945297127,0.18792227895252242,0.14445451478667362,0.020720375299117355,0.16558679628706172,
0.4852081491193445,0.05371093633007116,0.03949336135033871,0.038410317289488384,0.187227509994186,0.14452082619176085,0.02057068170431464,0.1647150283423789,
0.48600227047633027,0.05380936018800442,0.03943624653003872,0.03846726569956913,0.1865324039429291,0.1445871921006349,0.020422060847297717,0.16384356490837468,
0.4867963918333196,0.05390619978604831,0.03937792103517455,0.03852333287056558,0.18583724311296385,0.14465362607816706,0.020274556041078296,0.16297268744276486,
0.48759051319030533,0.05400141409736656,0.03931842772155602,0.03857850753915417,0.18514230962881997,0.14472013992637772,0.020128209673461885,0.16210267684545981,
0.48838463454729464,0.054094962635378205,0.03925781017429157,0.03863277899314769,0.18444788529806141,0.14478674371855094,0.019983063190851625,0.16123381335872708,
0.4891787559042804,0.05418680547654253,0.03919611268206053,0.038686137073088996,0.18375425148501498,0.14485344583589257,0.019839157082855753,0.16036637646848761,
0.4899728772612697,0.05427690328327901,0.039133380211032076,0.03873857217362851,0.1830616889855571,0.14492025300667236,0.019696530867703826,0.1595006448067804,
0.49076699861825546,0.054365217327003806,0.039069658378442465,0.03879007524468713,0.18237047790300262,0.14498717034778782,0.01955522307847659,0.15863689605542955,
0.49156111997524476,0.05445170951126373,0.039004993425842606,0.038840637792407054,0.18168089752514,0.14505420140868322,0.019415271250153396,0.157775406850947,
0.4923552413322305,0.05453634239494812,0.03893943219202826,0.03889025187989272,0.18099322620245514,0.1451213482175542,0.01927671190748047,0.15691645269070223,
0.49314936268921983,0.05461907921555851,0.03887302208566522,0.03893891012774472,0.1803077412275868,0.14518861132976593,0.019139580553662692,0.15606030784039035,
0.4939434840462056,0.05469988391251582,0.03880581105762269,0.03898660571438935,0.17962471871605365,0.1452559898784085,0.019003911659880746,0.15520724524282786,
0.4947376054031949,0.05477872115048379,0.03873784757302755,0.039033332376207215,0.1789444334882941,0.14532348162691042,0.01886973865563498,0.15435753642810618,
0.49553172676018065,0.05485555634268808,0.038669180583053304,0.0390790844074639,0.17826715895305736,0.14539108302362938,0.01873709391991642,0.1535114514251304,
0.49632584811716995,0.05493035567420905,0.038599859496457264,0.039123856660046426,0.17759316699218497,0.14545878925833475,0.01860600877320483,0.1526692586745713,
0.4971199694741557,0.05500308612522678,0.038529934150880116,0.039167644543009215,0.17692272784681978,0.1455265943204959,0.01847651347029299,0.15183122494325632,
0.497914090831145,0.05507371549419617,0.038459454783922056,0.03921044402193338,0.17625611000508015,0.14559449105928698,0.018348637193935716,0.15099761524002642,
0.4987082121881308,0.05514221242093008,0.03838847200401026,0.039252251618103515,0.17559358009123455,0.14566247124521609,0.01822240804932147,0.15016869273308314,
0.49950233354511653,0.05520854640956799,0.03831703676107224,0.03929306440750599,0.17493540275641162,0.1457305256332855,0.018097853059363657,0.1493447186688502,
0.5002964549021058,0.05527268785140798,0.038245200317030714,0.03933288001965328,0.1742818405708803,0.14579864402758771,0.0179749981608082,0.14852595229237356,
0.5010905762590916,0.055334608047579205,0.038173014216135344,0.03937169663623859,0.1736331539179335,0.14586681534723966,0.017853868201153218,0.1477126507692827,
0.5018846976160809,0.055394279231532624,0.0381005302551471,0.039409512989625355,0.17298960088940774,0.14593502769355715,0.017734486936376144,0.14690506910933598,
0.5026788189730667,0.05545167459132719,0.038027800453391464,0.03944632836117632,0.17235143718287013,0.1460032684183691,0.017616877029462786,0.14610346009157144,
0.503472940330056,0.05550676829168911,0.03795487702269687,0.039482142579426865,0.1717189160005035,0.146071524193371,0.01750106004973243,0.14530807419108416,
0.5042670616870417,0.05555953549582196,0.037881812337234984,0.03951695601810732,0.1710922879497207,0.14613978108041506,0.01738705647295247,0.144519159507451,
0.505061183044031,0.05560995238694504,0.03780865890327986,0.03955076959401935,0.1704718009455364,0.14620802460263632,0.01727488568223536,0.14373696169482247,
0.5058553044010168,0.0556579961895382,0.03773546932890321,0.03958358476477117,0.16985770011472606,0.14627623981630963,0.01716456596971027,0.14296172389370115,
0.5066494257580061,0.05570364519027101,0.0376622962936231,0.03961540352637672,0.16925022770179987,0.14634441138333645,0.017056114538961182,0.14219368666442533,
0.5074435471149918,0.05574687875859466,0.0375891925180241,0.03964622841072388,0.16864962297681893,0.14641252364425664,0.01694954750822276,0.14143308792237552,
0.5082376684719812,0.0557876773669753,0.03751621073336664,0.0396760624829167,0.16805612214508098,0.14648056069168386,0.016844879914324713,0.14068016287492144,
0.5090317898289669,0.0558260226107477,0.03744340365120393,0.03970490933849706,0.16746995825870134,0.14654850644406062,0.016742125717375003,0.1399351439601259,
0.5098259111859562,0.05586189722756859,0.03737082393302488,0.0397327731005507,0.16689136113011602,0.14661634471963172,0.016641297806171726,0.1391982607872216,
0.510620032542942,0.055895285116449284,0.03729852415994161,0.0397596584167028,0.1663205572475322,0.14668405931053374,0.01654240800433304,0.13846974007887564,
0.5114141538999313,0.055926171356347774,0.03722655680244068,0.039785570456008446,0.16575776969235145,0.1467516340569006,0.01644546707713407,0.13774980561525677,
0.512208275256917,0.05595454222430071,0.037154974190216884,0.03981051490574263,0.16520321805859056,0.14681905292088515,0.0163504847390393,0.13703867817991808,
0.5130023966139063,0.05598038521307667,0.03708382848210925,0.039834497968095024,0.16465711837432437,0.14688630006049808,0.01625746966191848,0.1363365755075089,
0.5137965179708921,0.05600368904833172,0.03701317163615855,0.03985752635677401,0.16411968302517482,0.14695335990316663,0.01616642948393376,0.13564371223332722,
0.5145906393278814,0.05602444370524954,0.03694305537980607,0.03987960729352496,0.16359112067987033,0.1470202172189175,0.016077370819085286,0.13496029984472355,
0.5153847606848672,0.05604264042464824,0.036873531180253605,0.03990074850456704,0.1630716362178986,0.14708685719308895,0.01599029926740205,0.13428654663436673,
0.5161788820418565,0.05605827172853713,0.03680465021500444,0.039920958216953094,0.16256143065927645,0.14715326549847935,0.01590521942576442,0.13362265765537973,
0.5169730033988422,0.0560713314351069,0.03673646334260565,0.039940245154856495,0.16206070109645915,0.14721942836684093,0.015822134899344375,0.13296883467835421,
0.5177671247558315,0.05608181467313759,0.036669021073611856,0.03995861853578923,0.161569640628412,0.14728533265962976,0.01574104831364916,0.1323252761502501,
0.5185612461128173,0.056089717895808716,0.03660237354179069,0.0399760880667548,0.16108843829686545,0.14735096593792452,0.015661961327153515,0.13169217715518547,
0.5193553674698066,0.05609503889389706,0.036536570475590155,0.03999266394033963,0.16061727902477607,0.1474163165314289,0.01558487464450551,0.13106972937712164,
0.5201494888267923,0.056097776808348376,0.036471661169888134,0.040008356830746175,0.16015634355701416,0.14748137360647462,0.015509788030290421,0.13045812106444535,
0.5209436101837817,0.05609793214220976,0.03640769445804387,0.04002317788977104,0.15970580840329826,0.14754612723294472,0.015436700323336886,0.12985753699644978,
0.5217377315407674,0.05609550677190994,0.03634471868427182,0.04003713874273087,0.1592658457833968,0.14761056845003848,0.015365609451549264,0.12926815845171444,
0.5225318528977532,0.056090503957875806,0.036282781676357456,0.04005025148433885,0.15883662357461562,0.14767468933080244,0.015296512447249723,0.12869016317838203,
0.5233259742547425,0.05608292835447411,0.036221930718735036,0.04006252867453421,0.15841830526158962,0.14773848304535264,0.015229405463013363,0.12812372536632904,
0.5241200956117282,0.05607278601926822,0.03616221252594656,0.04007398333426714,0.15801104988839698,0.14780194392271814,0.015164283787979379,0.12756901562122477,
0.5249142169687175,0.05606008442158037,0.03610367321650155,0.040084628941241,0.15761501201301176,0.14786506751123651,0.015101141864620894,0.12702620094047218,
0.5257083383257033,0.056044832450350766,0.03604635828715642,0.040094479425614046,0.15723034166411076,0.14792785063743571,0.015039973305956026,0.1264954446910216,
0.5265024596826926,0.056027040421285514,0.03599031258763242,0.040103549165662195,0.15685718430024995,0.14799029146333778,0.014980770913182366,0.12597690658904742,
0.5272965810396784,0.056006720083286395,0.03593558029579057,0.040111852983404445,0.1564956807714232,0.14805238954212435,0.014923526693716811,0.12547074268147476,
0.5280907023966677,0.05598388462415612,0.035882204893281686,0.040119406140192417,0.15614596728301694,0.1481141458721042,0.014868231879622627,0.12497710532934253,
0.5288848237536534,0.05595854867557351,0.03583022914168932,0.04012622433226531,0.15580817536217115,0.1481755629489276,0.014814876946405198,0.12449614319298662,
0.5296789451106427,0.05593072831733389,0.035779695059183006,0.040132323686271454,0.1554824318265588,0.14823664481599358,0.014763451632157979,0.12402800121902488,
0.5304730664676285,0.05590044108085081,0.03573064389769876,0.04013772075475759,0.15516885875559214,0.1482973971129981,0.014713944957039838,0.12357282062912457,
0.5312671878246178,0.055867705951915585,0.035683116120663445,0.04014243251162644,0.15486757346406485,0.14835782712257536,0.014666345243064847,0.12313073891053043,
0.5320613091816035,0.05583254337271227,0.03563715138127893,0.040146476347563825,0.15457868847823736,0.1484179438149849,0.014620640134185561,0.12270188980832997,
0.5328554305385929,0.055794975243086097,0.03559278850138182,0.04014987006543564,0.15430231151437182,0.1484777578908009,0.014576816616650508,0.12228640331943093,
0.5336495518955786,0.05575502492106427,0.03555006545089359,0.040152631875655515,0.15403854545972204,0.14853728182156084,0.01453486103961664,0.12188440568822387,
0.5344436732525679,0.055712717222628584,0.035509019327875896,0.04015478039152335,0.15378748835598313,0.14859652988833455,0.01449475913599737,0.12149601940390092,
0.5352377946095537,0.05566807842073997,0.03546968633920493,0.040156334624535314,0.15354923338520357,0.14865551821817574,0.014456496043526763,0.12112136319940092,
0.536031915966543,0.055621136243615775,0.03543210178187834,0.04015731397966566,0.15332386885816265,0.14871426481842132,0.014420056326020394,0.12076055205194845,
0.5368260373235287,0.05557191987226098,0.0353963000249674,0.040157738250620384,0.15311147820521437,0.14877278960880436,0.014385423994813313,0.12041369718515366,
0.537620158680518,0.05552045993725546,0.03536231449222674,0.04015762761506311,0.15291213996959707,0.14883111445135114,0.01435258253035563,0.12008090607263779,
0.5384142800375038,0.05546678851479952,0.035330177645373176,0.040157002629813275,0.15272592780320923,0.14888926317803142,0.01432151490394608,0.11976228244314775,
0.5392084013944931,0.05541093912202058,0.03529992096804477,0.040155884226016694,0.15255291046484723,0.1489472616161368,0.014292203599584177,0.11945792628712279,
0.5400025227514789,0.05535294671154471,0.03527157495045019,0.040154293704288635,0.15239315182090263,0.14900513761136067,0.014264630635921371,0.11916793386467325,
0.5407966441084682,0.05529284766533649,0.03524516907471811,0.04015225272982937,0.15224671084851366,0.14906292104855662,0.0142387775882919,0.11889239771493193,
0.5415907654654539,0.05523067978781145,0.03522073180095561,0.04014978332751224,0.15211364164116437,0.14912064387015347,0.01421462561080397,0.11863140666673687,
0.5423848868224432,0.05516648229822563,0.03519829055402362,0.04014690787694434,0.15199399341672387,0.14917834009220687,0.014192155458472067,0.118385045850603,
0.543179008179429,0.055100295822347274,0.035177871711037055,0.04014364910749957,0.1518878105279166,0.14923604581806846,0.014171347509371377,0.1181533967119403,
0.5439731295364183,0.05503216238341558,0.03515950058959631,0.04014003009332421,0.15179513247521279,0.14929379924965555,0.014152181786795375,0.11793653702547416,
0.544767250893404,0.054962125392392217,0.03514320143675596,0.0401360742483147,0.15171599392212623,0.14935164069630646,0.014134637981397805,0.11773454091082335,
0.5455613722503898,0.054890229637511403,0.03512899741873603,0.0401318053210676,0.1516504247129061,0.14940961258120627,0.014118695473300516,0.11754747884919159,
0.5463554936073791,0.054816521273134314,0.03511691061138044,0.040127247389801474,0.1515984498926056,0.14946775944537094,0.014104333354148783,0.11737541770112657,
0.5471496149643649,0.054741047807913924,0.035106961991366106,0.04012242485725035,0.15156008972951124,0.14952612794917805,0.014091530449096008,0.11721842072530146,
0.5479437363213542,0.05466385809227661,0.03509917142816569,0.04011736244552865,0.15153535973991195,0.149584766871435,0.014080265338699893,0.11707654759827288,
0.5487378576783399,0.05458500230522681,0.03509355767676635,0.04011208519096687,0.15152427071518662,0.1496437271059747,0.014070516380712474,0.11694985443516967,
0.5495319790353292,0.05450453194048115,0.03509013837114549,0.04010661843891809,0.15152682875118745,0.1497030616557737,0.0140622617317466,0.1168383938112672,
0.550326100392315,0.0544224997919388,0.03508893001850442,0.04010098783853444,0.15154303527989205,0.14976282562458432,0.014055479368801716,0.11674221478440121,
0.5511202217493043,0.05433895993849443,0.03508994799425953,0.04009521933751318,0.15157288710329886,0.14982307620607857,0.014050147110632094,0.1166613629181766,
0.5519143431062901,0.054253967728200486,0.03509320653779033,0.040089339176811706,0.1516163764295338,0.1498838726704994,0.01404624263894099,0.11659588030592553,
0.5527084644632794,0.054167579761785614,0.0350987187489422,0.04008337388533068,0.15167349091113858,0.14994527634881877,0.01404374351938433,0.11654580559537071,
0.5535025858202651,0.05407985387553567,0.03510649658528188,0.040077350274564646,0.1517442136855051,0.15000735061440185,0.014042627222368058,0.11651117401394923,
0.5542967071772544,0.05399084912354419,0.03511655086010214,0.04007129543321913,0.15182852341742217,0.15007016086217964,0.014042871143623398,0.11649201739475294,
0.5550908285342402,0.053900625759338856,0.03512889124117191,0.04006523672179339,0.1519263943436939,0.15013377448533236,0.01404445262454471,0.11648836420304205,
0.5558849498912295,0.05380924521689062,0.03514352625022711,0.040059201767127656,0.15203779631979145,0.15019826084948826,0.014047348972274958,0.11650023956328825,
0.5566790712482153,0.05371677009101205,0.03516046326319691,0.040053218456913675,0.15216269486849518,0.15026369126444503,0.014051537479524095,0.11652766528670512,
0.5574731926052046,0.053623264117151424,0.035179708511159154,0.04004731493416749,0.15230105123048227,0.15033013895342073,0.014056995444106034,0.11657065989922268,
0.5582673139621903,0.05352879215058912,0.03520126708201838,0.040041519591662876,0.152452822416815,0.15039767901984508,0.014063700188180322,0.11662923866986467,
0.5590614353191796,0.05343342014504244,0.03522514292289889,0.040035861066324306,0.15261796126328003,0.15046638841170126,0.014071629077184948,0.116703413639487,
0.5598555566761654,0.053337215130685255,0.035251338843244974,0.04003036823357737,0.1527964164865293,0.15053634588343387,0.014080759538447049,0.11679319364983595,
0.5606496780331547,0.05324024519158879,0.03527985651861943,0.040025070201655466,0.15298813274197057,0.1506076319554376,0.014091069079458726,0.11689858437288636,
0.5614437993901404,0.053142579442589565,0.035310696495191154,0.04001999630586061,0.1531930506833536,0.15068032887114563,0.014102535305805585,0.11701958834041917,
0.5622379207471297,0.0530442880055907,0.03534385819490193,0.04001517610277667,0.15341110702399666,0.15075452055173702,0.01411513593873601,0.11715620497379867,
0.5630320421041155,0.05294544198530276,0.03537933992130164,0.04001063936443265,0.15364223459959572,0.1508302925484873,0.014128848832359483,0.11730843061391052,
0.5638261634611048,0.052846113444429986,0.035417138866041226,0.04000641607241408,0.15388636243255802,0.15090773199278612,0.014143651990462776,0.11747625855122185,
0.5646202848180906,0.05274637537830815,0.03545725111601179,0.04000253641191997,0.15414341579779936,0.15098692754385049,0.014159523582933186,0.11765967905592556,
0.5654144061750799,0.05264630168900013,0.03549967166111781,0.039999030765762986,0.1544133162899436,0.1510679693341634,0.014176441961778396,0.11785867940813133,
0.5662085275320656,0.052545967158855095,0.035544394402672,0.039995929708310195,0.15469598189186065,0.15115094891267067,0.014194385676732918,0.11807324392806658,
0.5670026488890549,0.05244544742353768,0.03559141216239888,0.03999326399936165,0.15499132704447846,0.15123595918577115,0.014213333490441585,0.11830335400625074,
0.5677967702460407,0.05234481894453315,0.03564071669203376,0.03999106457796376,0.1552992627178032,0.15132309435613822,0.014233264393210791,0.1185489881336075,
0.56859089160303,0.052244158981134915,0.03569229868350342,0.03998936255615462,0.1556196964830799,0.15141244985941152,0.01425415761731866,0.11881012193147966,
0.5693850129600158,0.05214354556192096,0.035746147779674484,0.03998818921263763,0.15595253258602518,0.1515041222988029,0.014275992650875754,0.11908672818151256,
0.5701791343170015,0.05204305745572525,0.03580225258565489,0.03998757598638027,0.15629767202106162,0.15159820937765936,0.014298749251228164,0.11937877685537183,
0.5709732556739908,0.051942774142110924,0.03586060068063368,0.0399875544701342,0.15665501260648304,0.15169480983003117,0.014322407457895424,0.11968623514426292,
0.5717673770309766,0.05184277578135185,0.035921178630244126,0.03998815640387311,0.1570244490604785,0.15179402334929254,0.01434694760503586,0.12000906748821892,
0.5725614983879659,0.051743143183929204,0.03598397199943468,0.039989413668144236,0.15740587307794127,0.15189595051486712,0.014372350333432543,0.12034723560512531,
0.5733556197449516,0.051643957779549624,0.03604896536583218,0.039991358277329164,0.15779917340798838,0.15200069271710823,0.014398596601993257,0.1207006985194501,
0.574149741101941,0.051545301585692205,0.03611614233358144,0.039994022372810106,0.15820423593211524,0.15210835208038986,0.014425667698758336,0.12106941259064795,
0.5749438624589267,0.05144725717569084,0.03618548554764491,0.03999743821603661,0.1586209437429085,0.15221903138446274,0.01445354525141053,0.12145333154120892,
0.575737983815916,0.051349907646358973,0.036256976708546454,0.040001638181488317,0.1590491772232405,0.1523328339841323,0.014482211237281573,0.12185240648432125,
0.5765321051729018,0.05125333658516362,0.036330596587542174,0.04000665474952881,0.1594888141258665,0.15244986372731742,0.014511647992850308,0.12226658595111939,
0.5773262265298911,0.05115762803695558,0.03640632504220193,0.04001252049914548,0.1599397296533458,0.15257022487154848,0.01454183822272762,0.12269581591748834,
0.5781203478868768,0.05106286647026279,0.03648414103238469,0.040019268100570306,0.1604017965382073,0.15269402199896534,0.014572765008123998,0.12314003983039634,
0.5789144692438661,0.05096913674315369,0.03656402263659049,0.04002693030777614,0.16087488512327958,0.15282135992987622,0.014604411814795642,0.12359919863372813,
0.5797085906008519,0.05087652406867737,0.03664594706867212,0.040035539950843094,0.16135886344210418,0.15295234363493965,0.014636762500465618,0.12407323079359216,
0.5805027119578412,0.05078511397988758,0.036729890694889016,0.04004512992818928,0.1618535972993517,0.15308707814603223,0.014669801321716818,0.12456207232307574,
0.581296833314827,0.05069499229445721,0.03681582905128616,0.04005573319866047,0.1623589503511584,0.15322566846586602,0.014703512940353906,0.12506565680642223,
0.5820909546718163,0.050606245078889965,0.036903736861380494,0.040067382773472555,0.16287478418530177,0.15336821947641827,0.014737882429231831,0.1255839154226061,
0.582885076028802,0.05051895861233607,0.03699358805413748,0.04008011170800127,0.16340095840113233,0.15351483584623973,0.014772895277548765,0.12611677696828116,
0.5836791973857913,0.05043321935001873,0.03708535578222021,0.04009395309341294,0.16393733068918157,0.15366562193670516,0.014808537395601834,0.12666416788007923,
0.5844733187427771,0.05034911388627801,0.03717901244049353,0.04010894004813061,0.16448375691036118,0.15382068170727256,0.014844795119004332,0.12722601225623673,
0.5852674400997664,0.050266728917239045,0.03727452968476563,0.04012510570912953,0.16504009117467364,0.15398011861981592,0.01488165521236347,0.12780223187752743,
0.5860615614567521,0.05018615120311119,0.037371878450749636,0.040142483223056205,0.16560618591935033,0.15414403554209846,0.01491910487241812,0.12839274622748026,
0.5868556828137415,0.050107467530124974,0.03747102897322755,0.04016110573716506,0.16618189198633623,0.15431253465045228,0.014957131730636508,0.1289974725118624,
0.5876498041707272,0.050030764672113634,0.037571950805399136,0.04018100639006713,0.1667670586990391,0.15448571733173136,0.014995723855273901,0.12961632567740825,
