time,DELT1,DELT3,TRIlg,TRIlat,BIClg,BICsh,BRA,
0.0,0.03206620606389859,0.23065403053684852,0.07725749046788548,0.03515225490435219,0.009836024877276143,0.0018126814158605277,0.01229722588531187,
0.0007941213569875316,0.032065007931894894,0.22931252601567678,0.07605600031257831,0.034916582147702865,0.009906547183950303,0.001836840137089859,0.012394082850132162,
0.0015882427139750632,0.03206377481955957,0.22797757609527194,0.0748688311926399,0.034687299774285085,0.00997835369551483,0.0018618704502049227,0.012491378007799907,
0.002382364070962595,0.03206250546423265,0.22664955332035389,0.07369598754769587,0.03446438118271002,0.010051432439582128,0.0018877707758664128,0.012589092446072883,
0.0031764854279501265,0.03206119864722303,0.22532882516605016,0.07253746903291715,0.0342477974036547,0.01012577084443468,0.00191453921803757,0.01268720707675871,
0.003970606784937658,0.032059853197384275,0.22401575392120804,0.07139327061538162,0.03403751715967256,0.010201355746982175,0.0019421735631384217,0.012785702651326523,
0.00476472814192519,0.032058467994769135,0.222710696574587,0.07026338267161128,0.033833506926032174,0.010278173401158133,0.001970671279344978,0.012884559776747437,
0.005558849498912721,0.03205704197435813,0.22141400470392825,0.0691477910861596,0.03363573099252087,0.010356209486750437,0.00200002951603484,0.012983758931550387,
0.006352970855900253,0.03205557412985736,0.22012602436789616,0.06804647735112467,0.033444151526150566,0.010435449118659738,0.0020302451033805727,0.013083280482079804,
0.0071470922128877845,0.03205406351756069,0.2188470960008839,0.06695941866646715,0.03325872863470311,0.010515876856579374,0.002061314552092146,0.013183104698941144,
0.007941213569875316,0.032052509260271346,0.21757755431067569,0.06588658804101455,0.03307942043105293,0.010597476715090088,0.0020932340533096404,0.013283211773620279,
0.008735334926862848,0.0320509105512776,0.21631772817895545,0.06482795439403566,0.03290618309820534,0.01068023217416245,0.002125999478647355,0.013383581835262443,
0.00952945628385038,0.03204926665837738,0.21506794056465053,0.06378348265727246,0.03273897095498924,0.010764126190059588,0.0021596063803903686,0.013484194967596244,
0.010323577640837911,0.03204757692794617,0.21382850841010012,0.06275313387731918,0.03257773652234381,0.010849141206632442,0.002194049991844505,0.013585031225988049,
0.011117698997825443,0.032045840789043024,0.21259974255003455,0.06173686531824159,0.032422430590139266,0.010935259166999455,0.0022293252278405683,0.01368607065461196,
0.011911820354812974,0.03204405775754901,0.2113819476233538,0.060734630564332835,0.032273002284472385,0.011022461525602305,0.002265426685393641,0.01378729330372036,
0.012705941711800506,0.03204222744033261,0.2101754219876908,0.0597463796229049,0.03212939913537822,0.011110729260628869,0.002302348644518134,0.01388867924699984,
0.013500063068788037,0.03204034953943625,0.2089804576367469,0.05877205902701858,0.03199156714490047,0.01120004288679436,0.0023400850691991876,0.013990208598997309,
0.014294184425775569,0.03203842385627848,0.20779734012038611,0.057811611938058144,0.03185945085546352,0.011290382468471237,0.0023786296085209256,0.014091861532600839,
0.0150883057827631,0.032036450295865944,0.20662634846747582,0.05686497824805972,0.03173299341849012,0.011381727633158138,0.0024179755979519706,0.0141936182965597,
0.015882427139750632,0.03203442887100946,0.20546775511146156,0.05593209468170695,0.0316121366632095,0.011474057585277852,0.00245811606078853,0.014295459233028,
0.016676548496738164,0.03203235970653872,0.20432182581866554,0.05501289489790958,0.031496821165601444,0.011567351120293997,0.0024990437097552644,0.014397364795116194,
0.017470669853725695,0.032030243043509356,0.2031888196192985,0.054107309590885284,0.03138698631742296,0.011661586639135827,0.002540750948764057,0.01449931556443472,
0.018264791210713227,0.03202807924339696,0.20206898874117746,0.05321526659066785,0.03128257039526498,0.011756742162920195,0.002583229874830698,0.014601292268613886,
0.01905891256770076,0.03202586879227206,0.2009625785461419,0.052336690962968314,0.0311835106295872,0.01185279534795959,0.0026264722801493962,0.014703275798784216,
0.01985303392468829,0.032023612304950155,0.19986982746916415,0.051471505108319056,0.031089743273680383,0.011949723501044706,0.0026704696543249215,0.014805247227001236,
0.020647155281675822,0.03202131052911109,0.19879096696015125,0.05061962886043428,0.031001203672506097,0.012047503594989817,0.002715213186762096,0.014907187823598816,
0.021441276638663354,0.03201896434938181,0.1977262214284373,0.04978097958372368,0.03091782633136481,0.012146112284428927,0.0027606937692122363,0.015009079074455098,
0.02223539799564911,0.03201657479137658,0.19667580818996697,0.048955472269899,0.03083954498434419,0.012245525921850528,0.0028069019984760554,0.015110902698155092,
0.02302951935263664,0.032014143025688876,0.19563993741717464,0.04814301963361665,0.030766292662500146,0.012345720573858335,0.002853828179262427,0.015212640663034044,
0.023823640709624172,0.03201167037182901,0.19461881209156254,0.047343532207102454,0.030698001761724256,0.012446672037645313,0.0029014623272022987,0.01531427520408563,
0.024617762066611704,0.03200915830210161,0.1936126279589867,0.04655691843370787,0.030634604110252026,0.012548355857667922,0.002949794172016973,0.015415788839719186,
0.025411883423599235,0.03200660844541715,0.19262157348765976,0.0457830847603496,0.030576031035767316,0.01265074734250745,0.002998813160839836,0.015517164388350147,
0.026206004780586767,0.03200402259103156,0.19164582982888131,0.045021935728788,0.030522213432058756,0.012753821581904962,0.003048508461690531,0.015618384984808031,
0.0270001261375743,0.03200140269220831,0.19068557078050918,0.04427337406570201,0.030473081825185364,0.012857553463956213,0.0030988689671004664,0.015719434096546348,
0.02779424749456183,0.031998750869796894,0.18974096275318655,0.043537300771521154,0.030428566439109034,0.012961917692452678,0.0031498832978884565,0.015820295539638905,
0.02858836885154936,0.03199606941572218,0.18881216473933904,0.04281361520797821,0.030388597260752555,0.013066888804354726,0.003201539807085166,0.015920953494547124,
0.029382490208536893,0.031993360796378774,0.18789932828496023,0.04210221518434809,0.030353104104442346,0.013172441187382658,0.00325382658400496,0.0160213925216431,
0.030176611565524425,0.03199062765592479,0.1870025974642027,0.04140299704234173,0.030322016675696103,0.013278549097711274,0.003306731458463651,0.016121597576473273,
0.030970732922511957,0.031987872819469465,0.18612210885679314,0.04071585573962573,0.030295264634316126,0.013385186677753442,0.0033602420051405345,0.016221554024747786,
0.03176485427949949,0.031985099296149094,0.1852579915282913,0.0400406849319409,0.030272777656749936,0.013492327974017972,0.0034143455480829927,0.016321247657040638,
0.03255897563648702,0.03198231028208578,0.18441036701321098,0.03937737705379514,0.030254485497680436,0.013599946955026993,0.0034690291653518735,0.016420664703186136,
0.03335309699347455,0.03197950916322377,0.18357934930102315,0.03872582339770848,0.030240318050808727,0.013708017529277812,0.003524279693805748,0.016519791846357143,
0.03414721835046208,0.03197669951803814,0.1827650448250614,0.038085914191990096,0.030230205408793044,0.013816513563234246,0.0035800837340220397,0.016618616236811,
0.034941339707449615,0.031973885120110575,0.18196755245434826,0.03745753867702921,0.030224077922308197,0.013925408899332184,0.0036364276553529514,0.016717125505289143,
0.035735461064437146,0.031971069940567406,0.18118696348836122,0.036840585180083665,0.03022186625819066,0.014034677373984112,0.003693297601113996,0.016815307776056658,
0.03652958242142468,0.031968258150374934,0.18042336165475742,0.03623494118855201,0.030223501456634966,0.014144292835567208,0.0037506794939028676,0.016913151679568382,
0.03732370377841221,0.031965454122487434,0.17967682311007352,0.03564049342171664,0.030228914987407943,0.014254229162379546,0.0038085590410462983,0.017010646364748347,
0.03811782513539974,0.03196266243384309,0.17894741644341866,0.03505712790094752,0.03023803880504771,0.014364460280548863,0.0038669217401724625,0.017107781510869557,
0.03891194649238727,0.03195988786720346,0.1782352026831754,0.034484730018357286,0.03025080540301511,0.01447496018187828,0.003925752884906388,0.01720454733902159,
0.039706067849374804,0.03195713541283208,0.17754023530672272,0.03392318460390089,0.030267147866766052,0.014585702941613396,0.0039850375706857715,0.017300934623153744,
0.040500189206362336,0.03195441027000794,0.17686256025319477,0.033372375990913895,0.030286999925713782,0.014696662736115,0.004044760700694484,0.017396934700681717,
0.04129431056334987,0.03195171784836987,0.1762022159392861,0.03283218808008535,0.030310296004050802,0.014807813860421884,0.004104906991911015,0.017492539482646285,
0.0420884319203374,0.03194906376908761,0.17555923327811362,0.03230250440186268,0.030336971270400945,0.014919130745688038,0.0041654609812689855,0.017587741463412635,
0.04288255327732493,0.031946453865855956,0.1749336357011428,0.031783208177287234,0.030366961686272634,0.015030587976478575,0.004226407031926796,0.017682533729899485,
0.04367667463431246,0.031943894185708144,0.1743254391831838,0.03127418237726067,0.030400204053285158,0.015142160307908816,0.004287729339643415,0.0177769099703275,
0.044470795991299994,0.03194139098964485,0.17373465227046167,0.030775309780243718,0.030436636059140453,0.015253822682610942,0.0043494119392572415,0.017870864482476906,
0.045264917348287526,0.03193895075307522,0.17316127611176146,0.030286473028389996,0.030476196322313687,0.015365550247512755,0.004411438711264886,0.017964392181444615,
0.04605903870527328,0.03193658016606647,0.17260530449264821,0.029807554682118906,0.030518824435436406,0.015477318370413233,0.004473793388496659,0.018057488606891582,
0.04685316006226081,0.03193428613339884,0.1720667238727565,0.02933843727313257,0.030564461007347155,0.015589102656339487,0.004536459562885514,0.018150149929771552,
0.047647281419248344,0.03193207577442257,0.171545513426145,0.028879003355883122,0.030613047703784868,0.015700878963670076,0.00459942069232609,0.01824237295853291,
0.048441402776235876,0.03192995642271377,0.17104164508470615,0.028429135557497792,0.030664527286701368,0.015812623420009587,0.004662660107620481,0.018334155144785647,
0.04923552413322341,0.03192793562552603,0.17055508358462024,0.027988716626170057,0.030718843652169838,0.01592431243779968,0.004726161019507279,0.01842549458842609,
0.05002964549021094,0.0319260211430349,0.1700857865158379,0.02755762947802626,0.030775941866866986,0.016035922729652013,0.004789906525770399,0.018516390042212418,
0.05082376684719847,0.03192422094737202,0.1696337043745755,0.02713575724247807,0.030835768203107638,0.01614743132338854,0.004853879618424142,0.018606840915784663,
0.051617888204186,0.03192254322144622,0.1691987806188022,0.026722983306071937,0.03089827017241099,0.01625881557677514,0.00491806319097092,0.018696847279123175,
0.052412009561173534,0.031920996357548664,0.16878095172669563,0.026319191354847803,0.030963396557578935,0.016370053191934533,0.004982440045727958,0.018786409865440282,
0.053206130918161065,0.031919588955739084,0.16838014725804085,0.025924265415219923,0.03103109744326747,0.016481122229424848,0.005046992901219305,0.018875530073500263,
0.0540002522751486,0.03191832982201065,0.16799628991854196,0.025538089893393588,0.031101324245033184,0.016592001121970484,0.005111704399629404,0.018964209969363356,
0.05479437363213613,0.03191722796623063,0.167629295627016,0.02516054961333216,0.031174029736837812,0.01670266868783226,0.005176557114314454,0.01905245228755002,
0.05558849498912366,0.031916292599854214,0.1672790735854328,0.024791529853289654,0.03124916807699446,0.016813104143804044,0.0052415335573676915,0.01914026043162225,
0.05638261634611119,0.0319155331334091,0.16694552635176282,0.024430916380924757,0.03132669483254024,0.01692328711782348,0.0053066161872347235,0.019227638474179302,
0.05717673770309872,0.03191495917374831,0.16662854991559276,0.0240785954870127,0.031406567002021026,0.017033197661184763,0.005371787416374974,0.01931459115626574,
0.057970859060086255,0.03191458052106894,0.16632803377646416,0.023734454017772175,0.031488743036674934,0.017142816260341802,0.00543702961896526,0.01940112388619026,
0.05876498041707379,0.03191440716569469,0.16604386102488955,0.023398379405825044,0.0315731828600021,0.017252123848290467,0.005502325138641487,0.01948724273775422,
0.05955910177406132,0.03191444928461981,0.16577590842599557,0.023070259699807007,0.03165984788570966,0.01736110181551909,0.00556765629627443,0.01957295444788953,
0.06035322313104885,0.0319147172378127,0.1655240465057416,0.022749983592648,0.03174870103402141,0.017469732020516698,0.0056330053977754905,0.01965826641370599,
0.06114734448803638,0.0319152215642771,0.1652881396396591,0.02243744044854156,0.03183970674634319,0.017577996799828972,0.005698354741928266,0.019743186688948904,
0.06194146584502391,0.03191597297786903,0.16506804614405535,0.022132520328622892,0.031932830998275784,0.017685878977652458,0.00576368662824179,0.01982772397986813,
0.06273558720201144,0.03191698236286794,0.16486361836962102,0.02183511401537584,0.03202804131096856,0.01779336187495781,0.0058289833648211935,0.0199118876405005,
0.06352970855899898,0.0319182607693004,0.1646747027973809,0.021545113035789133,0.03212530676080797,0.01790042931813364,0.005894227276251596,0.019995687667368027,
0.06432382991598651,0.0319198194080148,0.16450114013692296,0.02126240968328312,0.032224597987436474,0.018007065647142783,0.005959400711490905,0.020079134693594836,
0.06511795127297404,0.03192166964550602,0.1643427654268416,0.02098689703842812,0.03232588720009827,0.018113255723183508,0.006024486051767271,0.02016223998244634,
0.06591207262996157,0.03192382299848866,0.16419940813732592,0.02071846898847616,0.032429148182309964,0.018218984935848618,0.00608946571847683,0.020245015420294773,
0.0667061939869491,0.031926291128217904,0.1640708922748252,0.020457020245728007,0.03253435629485478,0.01832423920977595,0.006154322181077403,0.020327473509015676,
0.06750031534393663,0.031929085834557176,0.16395703648871926,0.020202446364757733,0.03264148847710067,0.018429005010784323,0.006219037964973754,0.020409627357820457,
0.06829443670092417,0.031932219049791745,0.16385765417992262,0.0199546437585173,0.0327505232466437,0.018533269351489617,0.006283595659390058,0.02049149067453077,
0.06908855805790992,0.03193570283218802,0.16377255361134815,0.019713509713343937,0.03286144069727922,0.018637019796396016,0.0063479779252251685,0.02057307775630084,
0.06988267941489745,0.031939549359298006,0.16370153802015558,0.019478942402893253,0.032974222495304586,0.018740244466458257,0.006412167502886286,0.02065440347979449,
0.07067680077188498,0.031943770921008884,0.16364440573170952,0.019250840901021287,0.03308885187415849,0.018842932043111056,0.006476147220096601,0.020735483290824024,
0.07147092212887252,0.031948379912337926,0.1636009502751697,0.01902910519363869,0.03320531362740291,0.018945071771762547,0.006539899999672511,0.02081633319345866,
0.07226504348586005,0.03195338882597304,0.16357096050063574,0.018813636189560595,0.03332359410005517,0.019046653464749094,0.006603408867266005,0.020896969738610674,
0.07305916484284758,0.03195881024455959,0.16355422069776926,0.018604335730375714,0.03344368117827864,0.01914766750374932,0.006666656959067816,0.020977410012107824,
0.07385328619983511,0.03196465683273447,0.16355051071581375,0.01840110659935828,0.03356556427744185,0.01924810484165595,0.006729627529466902,0.02105767162226119,
0.07464740755682264,0.03197094132890844,0.16355960608493328,0.018203852529446632,0.03368923432855709,0.01934795700390429,0.006792303958661927,0.02113777268693788,
0.07544152891381017,0.03197767653679812,0.16358127813879159,0.01801247821031212,0.0338146837631106,0.019447216089257063,0.006854669760220291,0.02121773182014852,
0.0762356502707977,0.0319848753167097,0.1636152941382916,0.017826889294542195,0.033941906496297844,0.019545874770045546,0.006916708588580391,0.02129756811815991,
0.07702977162778524,0.03199255057657572,0.16366141739639595,0.017646992402961425,0.03407089790867848,0.01964392629186787,0.006978404246492712,0.02137730114514358,
0.07782389298477277,0.032000715262747524,0.16371940740395044,0.017472695129114285,0.034201654826266796,0.019741364472745507,0.007039740692395429,0.02145695091837144,
0.0786180143417603,0.03200938235054572,0.16378901995643072,0.01730390604293347,0.034334175499074596,0.01983818370173979,0.007100702047720119,0.021536537892969984,
0.07941213569874783,0.03201856483457138,0.16387000728153545,0.01714053469361741,0.034468459578124645,0.019934378937030803,0.0071612726041233,0.021616082946244848,
0.08020625705573536,0.03202827571878106,0.16396211816754788,0.016982491611740706,0.03460450809095419,0.0200299457034614,0.007221436830639428,0.021695607361588123,
0.0810003784127229,0.03203852800632881,0.16406509809239025,0.016829688310621024,0.034742323415628815,0.020124880089549785,0.007281179380751077,0.021775132811980853,
0.08179449976971043,0.03204933468917882,0.16417868935329555,0.016682037286965868,0.034881909253288663,0.020219178743974588,0.007340485099371987,0.021854681343103793,
0.08258862112669796,0.032060708737492415,0.16430263119702262,0.01653945202082273,0.0350232705992495,0.020312838871536888,0.007399339029738712,0.021934275356069458,
0.08338274248368549,0.032072663088793654,0.16443665995054157,0.0164018469748558,0.03516641371268302,0.02040585822860423,0.007457726420206583,0.022013937589789076,
0.08417686384067302,0.032085210636917855,0.16458050915211825,0.016269137592972473,0.03531134608490128,0.02049823511804223,0.007515632730945724,0.02209369110298828,
0.08497098519766055,0.03209836422074775,0.16473390968272747,0.016141240298322517,0.03545807640627169,0.020589968383639676,0.007573043640532906,0.022173559255885662,
0.08576510655464809,0.03211213661274246,0.16489658989772646,0.016018072490692942,0.03560661453178989,0.020681057404033847,0.0076299450524350415,0.022253565691548616,
0.08655922791163562,0.032126540507264476,0.16506827575872063,0.015899552543321108,0.035756971445339084,0.020771502086143118,0.00768632310138007,0.0223337343169411,
0.08735334926862315,0.03214158850871038,0.16524869096555536,0.01578559979914867,0.03590915922266543,0.020861302858114376,0.007742164159611121,0.022414089283678336,
0.08814747062561068,0.032157293119451355,0.1654375570883693,0.015676134566538765,0.0360631909931001,0.020950460661793433,0.007797454843019775,0.022494654968503593,
0.08894159198259821,0.032173666727589784,0.16563459369964598,0.01557107811447858,0.03621908090005978,0.02103897694472686,0.00785218201715432,0.022575455953502525,
0.08973571333958574,0.03219072159453869,0.16583951850620113,0.015470352667289352,0.03637684406035859,0.021126853651704428,0.007906332803098935,0.022656517006070867,
0.09052983469657327,0.03220846984243115,0.16605204748104585,0.015373881398865611,0.03653649652236527,0.021214093215851503,0.007959894583219745,0.02273786305865129,
0.0913239560535608,0.03222692344136703,0.1662718949950644,0.015281588426465278,0.03669805522304046,0.021300698549281457,0.008012855006773786,0.02281951918825579,
0.09211807741054834,0.03224609419650489,0.1664987739484498,0.015193398804071992,0.03686153794389038,0.021386673033318246,0.008065201995376917,0.022901510595790046,
0.0929121987675341,0.0322659937350072,0.16673239590183947,0.015109238515350992,0.037026963265873625,0.021472020508300143,0.008116923748326831,0.022983862585196357,
0.09370632012452162,0.03228663349284735,0.16697247120709444,0.015029034466219459,0.03719435052329945,0.021556745262975657,0.008168008747777313,0.023066600542432234,
0.09450044148150916,0.032308024701487435,0.16721870913766726,0.014952714477052197,0.03736371975675681,0.02164085202350324,0.008218445763760025,0.02314974991430158,
0.09529456283849669,0.03233017837443595,0.16747081801850477,0.01488020727454315,0.03753509166511428,0.02172434594206678,0.008268223859050135,0.02323333618715604,
0.09608868419548422,0.03235310529369502,0.1677285053554324,0.014811442483243138,0.03770848755663225,0.021807232585119223,0.008317332393872195,0.023317384865484056,
0.09688280555247175,0.03237681599610714,0.16799147796396816,0.01474635061679394,0.03788392929922973,0.021889517921266987,0.00836576103044276,0.023401921450405417,
0.09767692690945928,0.032401320759611524,0.16825944209751564,0.014684863068878578,0.03806143926994922,0.021971208308808363,0.008413499737346376,0.023486971418089395,
0.09847104826644681,0.03242662958942104,0.16853210357488613,0.01462691210390734,0.0382410403036641,0.022052310482939225,0.008460538793741593,0.023572560198114587,
0.09926516962343435,0.03245275220413048,0.16880916790710027,0.014572430847458948,0.038422755641073655,0.022132831542639866,0.00850686879339381,0.023658713151788784,
0.10005929098042188,0.03247969802176775,0.1690903404234222,0.014521353276495867,0.038606608876032414,0.022212778937257042,0.008552480648531795,0.023745455550447506,
0.10085341233740941,0.03250747614579959,0.16937532639657904,0.014473614209372602,0.03879262390226045,0.022292160452795546,0.008597365593524984,0.023832812553749656,
0.10164753369439694,0.03253609535110401,0.16966383116711964,0.014429149295655249,0.03898082485948281,0.022370984197934013,0.008641515188378574,0.023920809187989178,
0.10244165505138447,0.032565564069921886,0.16995556026686792,0.014387895005770595,0.03917123607904668,0.022449258589779975,0.008684921322043744,0.024009470324441475,
0.103235776408372,0.03259589037780059,0.170250219541427,0.014349788620502337,0.039363882029065614,0.022526992339379236,0.008727576215540309,0.02409882065776353,
0.10402989776535954,0.0326270819795429,0.17054751527169001,0.01431476822035199,0.03955878725914093,0.022604194436995146,0.008769472424889313,0.024188884684466554,
0.10482401912234707,0.0326591461951746,0.17084715429431618,0.014282772674781412,0.03975597634471084,0.022680874137173252,0.008810602843853169,0.024279686681480155,
0.1056181404793346,0.032692089945944657,0.17114884412112877,0.014253741631353749,0.03995547383107841,0.022757040943607292,0.008850960706481096,0.024371250684826807,
0.10641226183632213,0.032725919740372346,0.17145229305739576,0.014227615504789038,0.04015730417717026,0.02283270459382239,0.008890539589457734,0.024463600468425467,
0.10720638319330966,0.03276064166035564,0.17175721031895133,0.0142043354659504,0.04036149169907801,0.022907875043691635,0.008929333414252965,0.024556759523043273,
0.1080005045502972,0.03279626134735556,0.17206330614811965,0.014183843430776397,0.040568060513435214,0.022982562451802368,0.008967336449071094,0.02465075103541389,
0.10879462590728473,0.03283278398867177,0.17237029192840092,0.014166082049174576,0.04077703448068271,0.023056777163688386,0.009004543310597706,0.024745597867541134,
0.10958874726427226,0.032870214303824453,0.1726778802978817,0.014150994693891023,0.0409884371482759,0.023130529695944615,0.009040948965542637,0.02484132253620629,
0.11038286862125979,0.03290855653105828,0.17298578526133282,0.014138525449370104,0.041202291693887574,0.0232038307202407,0.009076548731977694,0.02493794719269729,
0.11117698997824732,0.03294781441398387,0.17329372230095724,0.014128619100618396,0.04141862086866037,0.023276691047250074,0.009111338280467871,0.02503549360277802,
0.11197111133523485,0.03298799118837295,0.17360140848575134,0.014121221122086214,0.04163744694056276,0.023349121610511097,0.009145313634994968,0.02513398312691536,
0.11276523269222238,0.03302908956912302,0.1739085625794453,0.014116277666579866,0.04185879163790302,0.023421133450236817,0.009178471173672693,0.025233436700781618,
0.11355935404920992,0.033071111737407635,0.17421490514698695,0.014113735554217195,0.042082676093055375,0.02349273769708989,0.009210807629252488,0.025333874816049578,
0.11435347540619745,0.03311405932802891,0.17452015865953396,0.014113542261438659,0.04230912078645262,0.02356394555593917,0.00924232008941946,0.02543531750149704,
0.11514759676318498,0.03315793341698814,0.17482404759792156,0.014115645910085692,0.04253814549089947,0.023634768289614506,0.009273005996877947,0.025537784304437518,
0.11594171812017251,0.03320273450929126,0.17512629855457168,0.014119995256557735,0.042769769216261,0.023705217202676175,0.009302863149226475,0.025641294272493242,
0.11673583947715827,0.03324846252700532,0.17542664033381183,0.01412653968105886,0.04300401015457975,0.02377530362521529,0.009331889698621974,0.02574586593572618,
0.1175299608341458,0.033295116797582555,0.17572480405056945,0.014135229176944443,0.04324088562567547,0.02384503889670131,0.00936008415123331,0.025851517289142426,
0.11832408219113333,0.033342696042468374,0.17602052322741052,0.014146014340177964,0.04348041202328075,0.023914434349892804,0.009387445366484351,0.025958265775584792,
0.11911820354812086,0.033391198366009664,0.17631353388989007,0.014158846358907603,0.04372260476176529,0.023983501294827448,0.009413972556086921,0.026066128269027957,
0.11991232490510839,0.03344062124467955,0.17660357466018323,0.014173677003171748,0.04396747822350152,0.024052251002906942,0.009439665282864246,0.026175121058289917,
0.12070644626209592,0.033490961516634984,0.1768903868489654,0.014190458614742236,0.04421504570692334,0.024120694691092525,0.00946452345936561,0.02628525983117312,
0.12150056761908345,0.03354221537162298,0.17717371454551065,0.014209144097113597,0.044465319375329417,0.024188843506226253,0.009488547346273102,0.026396559659048018,
0.12229468897607099,0.03359437834125144,0.17745330470597726,0.014229686905646272,0.04471831020648159,0.024256708509493425,0.009511737550601515,0.026509034981891205,
0.12308881033305852,0.03364744528964026,0.17772890723985044,0.014252041037871243,0.04497402794304837,0.024324300661040747,0.009534095023692658,0.026622699593789663,
0.12388293169004605,0.03370141040446811,0.17800027509451194,0.014276161023963127,0.04523248104394263,0.024391630804765165,0.009555621059005499,0.026737566628922023,
0.12467705304703358,0.03375626718843022,0.17826716433790715,0.014302001917388382,0.045493676636601685,0.024458709653287593,0.009576317289703672,0.02685364854802711,
0.1254711744040211,0.033812008451122144,0.17852933423928027,0.014329519285734789,0.04575762047025711,0.02452554777312552,0.009596185686042133,0.026970957125369684,
0.12626529576100864,0.03386862630136438,0.1787865473479492,0.014358669201728097,0.04602431687024093,0.024592155570078343,0.009615228552554889,0.027089503436212057,
0.12705941711799618,0.03392611213998196,0.1790385695700909,0.014389408234441181,0.04629376869337334,0.02465854327483875,0.009633448525045806,0.02720929784480022,
0.1278535384749837,0.03398445665305363,0.17928517024351148,0.014421693440700694,0.046565977284476374,0.024724720928843247,0.009650848567384865,0.02733034999287201,
0.12864765983197124,0.034043649805644026,0.1795261222103727,0.014455482356695892,0.04684094243405688,0.02479069837037451,0.009667431968112141,0.027452668788694286,
0.12944178118895877,0.03410368083603262,0.17976120188784955,0.014490732989793757,0.04711866233720067,0.02485648522092782,0.009683202336852227,0.02757626239663546,
0.1302359025459463,0.0341645382504525,0.17999018933669325,0.01452740381056435,0.04739913355371889,0.024922090871853514,0.009698163600541727,0.027701138227278932,
0.13103002390293383,0.034226209818351776,0.18021286832767686,0.014565453745019774,0.04768235096958601,0.024987524471286934,0.009712319999472776,0.0278273029280824,
0.13182414525992137,0.03428868256819008,0.18042902640589958,0.014604842167069846,0.04796830775970783,0.02505279491137698,0.009725676083155605,0.02795476237458715,
0.1326182666169089,0.034351942783782105,0.18063845495292954,0.014645528891197197,0.04825699535205671,0.02511791081582397,0.009738236706003383,0.0280835216621809,
0.13341238797389643,0.03441597600119977,0.18084094924676475,0.01468747416535413,0.0485484033932093,0.025182880527736994,0.009750007022842686,0.02821358509841691,
0.13420650933088396,0.03448076700624433,0.18103630851959437,0.014730638664083277,0.04884251971532134,0.02524771209782058,0.009760992484253076,0.02834495619589156,
0.1350006306878715,0.03454629983249894,0.18122433601334462,0.014774983481863662,0.04913933030457202,0.02531241327290006,0.009771198831739481,0.028477637665681822,
0.13579475204485902,0.034612557759972115,0.18140483903299548,0.014820470126683446,0.049438819271109664,0.025376991484794394,0.00978063209274113,0.02861163141134336,
0.13658887340184656,0.03467952331434172,0.18157762899765603,0.01486706051384035,0.049740968820528454,0.0254414538395449,0.009789298575480977,0.028746938523469337,
0.1373829947588341,0.03474717826680892,0.18174252148939032,0.014914716959970422,0.0500457592269048,0.025505807107007877,0.009797204863659705,0.02888355927480933,
0.13817711611582162,0.03481550363457068,0.18189933629978716,0.014963402177305355,0.050353168807420294,0.025570057710818463,0.009804357810998462,0.029021493115947216,
0.13897123747280915,0.034884479681919336,0.18204789747427075,0.01501307926815851,0.050663173898596765,0.025634211718732848,0.009810764535634673,0.029160738671536138,
0.1397653588297949,0.03495408592197689,0.18218803335415176,0.015063711719639186,0.05097574883416753,0.025698274833355194,0.009816432414375315,0.029301293737088147,
0.14055948018678244,0.035024301119071254,0.18231957661642126,0.015115263398594656,0.05129086592460719,0.02576225238325559,0.009821369076812251,0.029443155276315403,
0.14135360154376997,0.035095103291761215,0.1824423643112929,0.015167698546778996,0.05160849543834106,0.025826149314484296,0.009825582399304283,0.029586319419019378,
0.1421477229007575,0.03516646971651615,0.18255623789750255,0.015220981776247563,0.05192860558465372,0.025889970182487693,0.009829080498830637,0.029730781459523802,
0.14294184425774503,0.03523837693205615,0.1826610432753758,0.015275078064975725,0.05225116249831469,0.025953719144430353,0.009831871726720752,0.029876535855646733,
0.14373596561473256,0.03531080074435734,0.18275663081767987,0.015329952752700176,0.05257613022593752,0.02601739995192775,0.009833964662265358,0.030023576228206478,
0.1445300869717201,0.035383716232327035,0.1828428553982761,0.015385571536980884,0.05290347071408725,0.026081015944193146,0.009835368106213811,0.030171895361055533,
0.14532420832870763,0.03545709775415229,0.1829195764185936,0.015441900469481549,0.05323314379914961,0.026144570041602058,0.00983609107416285,0.0303214852016364,
0.14611832968569516,0.03553091895432527,0.1829866578319476,0.0154989059524661,0.05356510719897359,0.026208064739677146,0.009836142789841908,0.030472336862052446,
0.1469124510426827,0.035605152771347855,0.18304396816572638,0.015556554735508675,0.0538993165062979,0.02627150210349597,0.009835532678300231,0.030624440620646818,
0.14770657239967022,0.03567977144611748,0.18309138054147542,0.015614813912414264,0.05423572518396981,0.026334883762523638,0.009834270359001113,0.03077778592408174,
0.14850069375665775,0.035754746530995474,0.1831287726929074,0.0156736509183469,0.05457428456196369,0.026398210905871876,0.009832365638828547,0.030932361389910214,
0.14929481511364529,0.03583004889955873,0.18315602698187006,0.015733033527162186,0.05491494383620511,0.026461484277985798,0.009829828505011781,0.031088154809631695,
0.15008893647063282,0.03590564875703474,0.18317303041230493,0.015792929848940717,0.05525765006920452,0.026524704174758995,0.009826669117973153,0.03124515315222321,
0.15088305782762035,0.035981515651419535,0.1831796746422302,0.015853308327718713,0.055602348192503225,0.026587870440077356,0.009822897804104704,0.03140334256813687,
0.15167717918460788,0.036057618485277006,0.1831758559937849,0.015914137739412113,0.05594898101093309,0.02665098246279157,0.009818525048479028,0.031562708393754364,
0.1524713005415954,0.036133925528217994,0.18316147546137107,0.015975387189930162,0.056297489208689766,0.026714039174117975,0.009813561487499999,0.0317232351562892,
0.15326542189858294,0.03621040443005634,0.18313643871793175,0.01603702611347428,0.056647811357218,0.026777039045466973,0.009808017901498796,0.03188490657912681,
0.15405954325557047,0.03628702223463881,0.18310065611940463,0.016099024271018038,0.05699988392490593,0.026839980086697815,0.009801905207280883,0.03204770558759264,
0.154853664612558,0.03636374539434461,0.1830540427073905,0.016161351748963715,0.05735364128858408,0.02690285984479846,0.009795234450629428,0.032211614315138325,
0.15564778596954554,0.036440539785249956,0.18299651821007823,0.016223978957971057,0.05770901574682334,0.026965675402988585,0.009788016798770808,0.03237661410993576,
0.15644190732653307,0.03651737072295208,0.18292800704146703,0.01628687663195345,0.05806593753502483,0.02702842338024382,0.00978026353280774,0.032542685541868885,
0.1572360286835206,0.036594202979046524,0.18284843829892866,0.01635001582723686,0.058424334842293396,0.027091099931238923,0.009771986040125576,0.03270980840991329,
0.15803015004050813,0.03667100079825077,0.1827577457591517,0.01641336792187668,0.05878413383008504,0.027153700746707202,0.009763195806777376,0.03287796174989328,
0.15882427139749566,0.03674772791616653,0.18265586787251042,0.016476904615127564,0.05914525865261721,0.0272162210542134,0.009753904409853206,0.033047123842606344,
0.1596183927544832,0.03682434757767215,0.1825427477559018,0.016540597927061335,0.05950763147902981,0.027278655619336963,0.009744123509839211,0.033217272222305305,
0.16041251411147073,0.03690082255593606,0.1824183331840941,0.016604420198328,0.0598711725172835,0.027340998747262386,0.009733864842971961,0.03338838368552788,
0.16120663546845826,0.0369771151720414,0.1822825765796299,0.016668344090054743,0.06023580003978067,0.027403244284773146,0.00972314021359349,0.033560434300264126,
0.1620007568254458,0.03705318731521109,0.1821354350013273,0.01673234258387788,0.06060143041069304,0.027465385622645423,0.009711961486512526,0.033733399415452094,
0.16279487818243332,0.03712900046362206,0.18197687013142247,0.016796388982102804,0.060967978114979206,0.02752741569843776,0.009700340579377216,0.0339072536707923,
0.16358899953941908,0.03720451570579642,0.1818068482613964,0.016860456907986793,0.06133535578907382,0.02758932699967253,0.009688289455064837,0.034081971006871846,
0.1643831208964066,0.03727969376255674,0.18162534027652888,0.01692452030613978,0.06170347425322921,0.02765111156740509,0.009675820114093752,0.034257524675589235,
0.16517724225339414,0.03735449500953186,0.18143232163922174,0.016988553443038054,0.0620722425454894,0.027712761000175987,0.009662944587063007,0.034433887250871154,
0.16597136361038167,0.03742887950019903,0.18122777237113344,0.01705253090764615,0.06244156795727481,0.027774266458341804,0.009649674927124794,0.03461103063967277,
0.1667654849673692,0.0375028069894473,0.1810116770341651,0.017116427612142066,0.06281135607055564,0.027835618668780024,0.009636023202495103,0.034788926093253285,
0.16755960632435674,0.03757623695764656,0.18078402471033897,0.017180218792741144,0.0631815107965909,0.027896807929963043,0.009622001489007763,0.03496754421871907,
0.16835372768134427,0.0376491286352059,0.1805448089806083,0.017243880010614096,0.06355193441620884,0.027957824117396588,0.009607621862717136,0.03514685499082674,
0.1691478490383318,0.03772144102760415,0.18029402790263716,0.017307387152894732,0.06392252762160366,0.028018656689417627,0.009592896392554635,0.03532682776403918,
0.16994197039531933,0.03779313294087505,0.18003168398758826,0.017370716433773147,0.06429318955962333,0.028079294693346742,0.009577837133044284,0.035507431284827556,
0.17073609175230686,0.037864163007528526,0.17975778417595423,0.017433844395670212,0.06466381787652145,0.028139726771990167,0.009562456117082382,0.035688633704213144,
0.1715302131092944,0.037934489712889506,0.17947233981246868,0.017496747910489427,0.06503430876414612,0.028199941170486412,0.00954676534878642,0.03587040259054278,
0.17232433446628193,0.038004071421834484,0.17917536662012964,0.017559404180942366,0.0654045570075375,0.02825992574349257,0.009530776796418318,0.0360527049424924,
0.17311845582326946,0.0380728664059059,0.17886688467336928,0.017621790741943973,0.06577445603390555,0.028319667962705464,0.009514502385387015,0.03623550720229356,
0.173912577180257,0.03814083287078367,0.17854691837040085,0.017683885462074368,0.06614389796295833,0.02837915492471262,0.009497953991335377,0.036418775269178146,
0.17470669853724452,0.03820792898409267,0.1782154964047728,0.017745666545103695,0.06651277365855075,0.02843837335916828,0.00948114343331635,0.036602474513037164,
0.17550081989423205,0.03827411290352476,0.17787265173615788,0.017807112531576956,0.0668809727816226,0.028497309637289706,0.00946408246706331,0.036786569788289404,
0.17629494125121958,0.038339342805253016,0.17751842156040445,0.017868202300455684,0.0672483838443946,0.02855594978066894,0.009446782778359385,0.036971025447956905,
0.17708906260820712,0.038403576912615804,0.1771528472788752,0.01792891507081354,0.06761489426579022,0.028614279470395295,0.009429255976510507,0.037155805357943876,
0.17788318396519465,0.03846677352504764,0.17677597446709542,0.01798923040358311,0.06798039042805026,0.028672284056483893,0.009411513587926943,0.037340872911516866,
0.17867730532218218,0.03852889104723341,0.1763878528427334,0.018049128203350993,0.06834475773450721,0.028729948567605638,0.009393567049817905,0.0375261910439838,
0.1794714266791697,0.03858988801846219,0.17598853623293192,0.018108588720198805,0.0687078806684851,0.028787257721113936,0.009375427704003823,0.037711722247570266,
0.18026554803615724,0.03864972314215656,0.17557808254100843,0.018167592551587345,0.0690696428532902,0.02884419593336367,0.00935710679085076,0.03789742858649166,
0.18105966939314477,0.03870835531555276,0.17515655371253921,0.018226120644281526,0.06942992711325792,0.028900747330317778,0.009338615443331356,0.038083271712220576,
0.1818537907501323,0.03876574365950695,0.174724015700841,0.018284154296313693,0.06978861553581962,0.028956895758436813,0.00931996468121657,0.03826921287894857,
0.18264791210711984,0.03882184754840243,0.17428053843186161,0.018341675158982856,0.07014558953455367,0.02901262479584697,0.009301165405402477,0.03845521295924254,
0.18344203346410737,0.038876626640132354,0.1738261957684891,0.01839866523888757,0.07050072991318379,0.02906791776378202,0.009282228392376149,0.03864123245989604,
0.1842361548210949,0.03893004090613238,0.1733610654742855,0.018455106899990092,0.07085391693048769,0.029122757738294487,0.009263164288824623,0.03882723153797596,
0.18503027617808243,0.038982050661437125,0.17288522917665194,0.018510982865709544,0.07120503036607771,0.02917712756223145,0.00924398360639086,0.03901317001706575,
0.18582439753506996,0.039032616594734684,0.1723987723294264,0.01856627622104185,0.07155394958701627,0.02923100985747013,0.009224696716580327,0.039199007403706555,
0.18661851889205572,0.03908169979839261,0.17190178417491628,0.0186209704147042,0.07190055361522672,0.02928438703740838,0.009205313845821883,0.03938470290403777,
0.18741264024904325,0.03912926179842933,0.17139435770536363,0.018675049261301827,0.07224472119566076,0.029337241319705165,0.00918584507068636,0.0395702154406393,
0.18820676160603078,0.03917526458440432,0.17087658962383934,0.018728496943514788,0.07258633086518329,0.02938955473926582,0.009166300313266198,0.039755503669577544,
0.1890008829630183,0.039219670639200614,0.17034858030456212,0.018781298014302596,0.07292526102213463,0.02944130916146688,0.009146689336719263,0.03994052599765776,
0.18979500432000584,0.03926244296867308,0.1698104337526331,0.018833437399124384,0.07326138999653024,0.02949248629561487,0.00912702174097983,0.040125240599885446,
0.19058912567699338,0.0393035451311358,0.16926225756317723,0.018884900398172366,0.07359459612085716,0.029543067708633474,0.009107306958639644,0.04030960543713985,
0.1913832470339809,0.03934294126666215,0.16870416287987922,0.01893567268861631,0.07392475780142654,0.029593034838973038,0.009087554251001662,0.040493578274062796,
0.19217736839096844,0.0393805961261709,0.1681362643529011,0.01898574032685668,0.07425175359024079,0.029642369010736472,0.009067772704308997,0.040677116697166275,
0.19297148974795597,0.039416475100271985,0.16755868009616448,0.019035089750784048,0.07457546225733357,0.029691051448015024,0.009047971226151422,0.04086017813316242,
0.1937656111049435,0.03945054424784573,0.16697153164398162,0.019083707782042388,0.07489576286354062,0.029739063289427402,0.009028158542051551,0.041042719867519534,
0.19455973246193103,0.03948277032432911,0.16637494390701435,0.01913158162829374,0.07521253483365899,0.02978638560285526,0.009008343192232678,0.04122469906324761,
0.19535385381891857,0.0395131208096835,0.16576904512753995,0.019178698885481734,0.07552565802995195,0.029832999400367915,0.008988533528570057,0.041406072779917646,
0.1961479751759061,0.03954156393601777,0.1651539668340016,0.019225047540091248,0.07583501282595631,0.02987888565332887,0.008968737711727265,0.04158679799291837,
0.19694209653289363,0.03956806871484157,0.1645298437948182,0.01927061597140164,0.07614048018054863,0.02992402530767624,0.008948963708479007,0.04176683161295453,
0.19773621788988116,0.03959260496392354,0.1638968139714275,0.01931539295373079,0.0764419417122263,0.029968399299369043,0.008929219289221647,0.04194613050579066,
0.1985303392468687,0.039615143333729744,0.16325501847053503,0.019359367658667005,0.07673927977355965,0.030011988569990992,0.008909512025672457,0.042124651512244086,
0.19932446060385622,0.0396356553334177,0.16260460149553957,0.01940252965728602,0.07703237752577029,0.030054774082503,0.008889849288758477,0.04230235146843149,
0.20011858196084376,0.039654113356361965,0.16194571029710605,0.019444868922349874,0.07732111901339077,0.030096736837135558,0.008870238246695684,0.04247918722627231,
0.2009127033178313,0.03967049070518761,0.16127849512285342,0.019486375830484744,0.07760538923896067,0.03013785788741157,0.00885068586325889,0.042655115674252994,
0.20170682467481882,0.039684761616288186,0.16060310916612627,0.019527041164334416,0.07788507423771315,0.03017811835629,0.008831198896242714,0.0428300937584556,
0.20250094603180635,0.03969690128380552,0.1599197085138171,0.019566856114686157,0.07816006115220693,0.03021749945242051,0.00881178389611373,0.0430040785038541,
0.20329506738879388,0.03970688588304872,0.15922845209320585,0.01960581228256562,0.0784302383068574,0.030255982486498714,0.008792447204853811,0.043177027035881645,
0.2040891887457814,0.039714692593330506,0.15852950161778312,0.019643901681297343,0.0786954952823211,0.03029354888771165,0.008773194954994361,0.043348896602271814,
0.20488331010276895,0.03972029962019948,0.15782302153202266,0.01968111673852716,0.07895572298968709,0.030330180220262674,0.008754033068841137,0.04351964459517632,
0.20567743145975648,0.039723686217047374,0.15710917895506982,0.019717450298203005,0.0792108137444288,0.03036585819996463,0.008734967257888982,0.04368922857356201,
0.206471552816744,0.03972483270607081,0.15638814362331085,0.019752895622510074,0.0794606613400702,0.03040056471089008,0.008716003022425853,0.043857606285889,
0.20726567417373154,0.03972372049856776,0.15566008783179092,0.019787446393756805,0.07970516112151878,0.030434281822066846,0.008697145651325185,0.04402473569307188,
0.20805979553071907,0.039720332114549325,0.15492518637444658,0.019821096716207385,0.07994421005801962,0.030466991804207193,0.008678400222025541,0.04419057499172541,
0.2088539168877066,0.039714651201648056,0.1541836164831213,0.019853841117857023,0.08017770681568315,0.030498677146458646,0.008659771600696343,0.04435508263769583,
0.20964803824469413,0.03970666255330489,0.15343555776533246,0.01988567455214557,0.08040555182954005,0.03052932057316401,0.008641264442588326,0.04451821736987835,
0.2104421596016799,0.03969635212621691,0.1526811921407598,0.01991659239960542,0.08062764737507683,0.03055890506061829,0.00862288319256718,0.04467993823432107,
0.21123628095866742,0.039683707057029186,0.15192070377642627,0.019946590469439134,0.08084389763920487,0.030587413853809784,0.00860463208582871,0.04484020460861509,
0.21203040231565495,0.03966871567825439,0.15115427902054507,0.019975665001022633,0.08105420879061723,0.030614830483132766,0.008586515148793708,0.044998976226569905,
0.21282452367264248,0.03965136753340483,0.15038210633500682,0.020003812665329208,0.0812584890494864,0.030641138781058626,0.008568536200180587,0.045156213203172806,
0.21361864502963002,0.039631653391321985,0.14960437622648498,0.020031030566269908,0.08145664875645758,0.030666322898752613,0.008550698852253713,0.04531187605983063,
0.21441276638661755,0.039609565259689505,0.1488212811761373,0.020057316241945712,0.08164860044089123,0.03069036732262298,0.008533006512245193,0.04546592574989124,
0.21520688774360508,0.03958509639771627,0.1480330155678866,0.020082667665806644,0.08183425888830975,0.030713256890789287,0.008515462383947844,0.04561832368444177,
0.2160010091005926,0.039558241327977,0.14723977561526344,0.020107083247713216,0.08201354120700373,0.03073497680945672,0.008498069469476774,0.04576903175838011,
0.21679513045758014,0.03952899584739883,0.14644175928680087,0.020130561834895325,0.08218636689375287,0.030755512669183097,0.008480830571197069,0.04591801237675509,
0.21758925181456767,0.039497357037382747,0.1456391662299703,0.02015310271280396,0.08235265789861843,0.03077485046102512,0.008463748293814872,0.046065228481370554,
0.2183833731715552,0.03946332327305004,0.14483219769365482,0.02017470560585083,0.08251233868876301,0.03079297659255059,0.008446825046628954,0.046210643577647675,
0.21917749452854274,0.03942689423160452,0.14402105644915703,0.020195370678031035,0.0826653363112559,0.03080987790370319,0.008430063045939918,0.046354221761739,
0.21997161588553027,0.039388070899802084,0.1432059467097452,0.02021509853342403,0.08281158045482141,0.030825541682506515,0.008413464317613903,0.04649592774788734,
0.2207657372425178,0.039346855580520194,0.1423870740487441,0.020233890216567973,0.0829510035104886,0.03083995568059401,0.00839703069979765,0.0466357268960216,
0.22155985859950533,0.03930325189842066,0.14156464531618163,0.020251747212702714,0.08308354063110245,0.03085310812855165,0.008380763845781637,0.04677358523958091,
0.22235397995649286,0.039257264804699925,0.14073886855400874,0.02026867144787665,0.08320912978965628,0.030864987751059916,0.008364665227007857,0.04690946951355771,
0.2231481013134804,0.0392089005809222,0.1399099529099122,0.02028466528891268,0.08332771183640635,0.030875583781822216,0.008348736136218825,0.04704334718274955,
0.22394222267046793,0.03915816684193127,0.13907810854974662,0.020299731543228606,0.08343923055473056,0.03088488597826655,0.008332977690744153,0.04717518647020865,
0.22473634402745546,0.039105072537837966,0.13824354656861637,0.02031387345850741,0.08354363271569425,0.030892884636007537,0.008317390835921023,0.04730495638587735,
0.225530465384443,0.03904962795508129,0.1374064789006425,0.020327094722212752,0.08364086813128666,0.03089957060305591,0.008301976348644798,0.04743262675539673,
0.22632458674143052,0.03899184471656154,0.13656711822745443,0.020339399460945328,0.08373088970629304,0.03090493529376305,0.008286734841045895,0.04755816824907496,
0.22711870809841805,0.03893173578084545,0.13572567788545084,0.02035079223963566,0.08381365348876808,0.030908970702488124,0.008271666764288999,0.047681552411001055,
0.22791282945540559,0.038869315440443454,0.1348823717718787,0.02036127806056911,0.08388911871907721,0.03091166941697557,0.008256772412490582,0.04780275168828856,
0.22870695081239312,0.038804599319160624,0.13403741424978322,0.020370862362238902,0.08395724787747388,0.030913024631431037,0.008242051926750666,0.04792173946043315,
0.22950107216938065,0.03873760436852317,0.1331910200518852,0.020379551018023075,0.08401800673018156,0.030913030159283983,0.008227505299294629,0.04803849006876719,
0.23029519352636818,0.0386683488632837,0.1323434041834478,0.020387350334681306,0.08407136437395009,0.03091168044562564,0.008213132377720856,0.048152978845993046,
0.2310893148833557,0.038596852396008886,0.1314947818241955,0.02039426705066777,0.08411729327905793,0.03090897057931099,0.008198932869349864,0.04826518214577666,
0.23188343624034324,0.03852313587075395,0.13064536822935488,0.020400308334256177,0.08415576933073102,0.030904896304713894,0.008184906345670527,0.048375077372381683,
0.23267755759733078,0.038447221495829464,0.12979537862988683,0.020405481781473247,0.08418677186895174,0.03089945403312488,0.008171052246878958,0.048482643010323415,
0.23347167895431653,0.03836913277566616,0.12894502813198602,0.020409795413837004,0.08421028372663023,0.030892640853781062,0.00815736988650547,0.04858785865402115,
0.23426580031130406,0.03828889450178458,0.1280945316159239,0.020413257675896315,0.0842262912661133,0.0308844545445183,0.008143858456125079,0.04869070503742665,
0.2350599216682916,0.038206532742876956,0.12724410363431538,0.020415877432568206,0.0842347844140055,0.030874893582035705,0.008130517030146792,0.04879116406360535,
0.23585404302527913,0.03812207483400897,0.1263939583098912,0.020417663966269643,0.08423575669427798,0.030863957151762902,0.008117344570677034,0.04888921883424614,
0.23664816438226666,0.038035549364950336,0.125544309232861,0.020418626973840576,0.08422920525964232,0.030851645157320827,0.008104339932452334,0.04898485367907489,
0.2374422857392542,0.037946986167643214,0.1246953693579535,0.020418776563255067,0.08421513092116606,0.03083795822956719,0.008091501867836451,0.04907805418514569,
0.23823640709624172,0.037856416302818094,0.12384735090122197,0.02041812325011763,0.08419353817610849,0.03082289773521765,0.008078829031877004,0.04916880722598325,
0.23903052845322925,0.03776387204576775,0.12300046523670566,0.02041667795394185,0.08416443523395539,0.03080646578503446,0.008066319987416647,0.049257100990548815,
0.23982464981021678,0.03766938687128983,0.1221549227930374,0.020414451994208656,0.08412783404063258,0.03078866524157438,0.008053973210253754,0.04934292501200139,
0.24061877116720432,0.03757299543780977,0.12131093295009078,0.020411457086201696,0.08408375030087831,0.03076949972648795,0.00804178709434754,0.04942627019622499,
0.24141289252419185,0.03747473357069552,0.12046870393575979,0.020407705336617413,0.08403220349875641,0.030748973627362633,0.00802975995706254,0.04950712885009192,
0.24220701388117938,0.03737463824477658,0.11962844272296519,0.020403209238947704,0.08397321691629148,0.030727092104102308,0.008017890044447284,0.04958549470943166,
0.2430011352381669,0.03727274756608003,0.11879035492698219,0.020397981668633162,0.08390681765020883,0.030703861094836454,0.00800617553654197,0.04966136296667386,
0.24379525659515444,0.03716910075279683,0.11795464470318424,0.02039203587798513,0.08383303662676245,0.03067928732135219,0.007994614552709953,0.049734730298133155,
0.24458937795214197,0.03706373811549215,0.11712151464529841,0.020385385490874996,0.08375190861463491,0.030653378294042744,0.0079832051569878,0.04980559489090326,
0.2453834993091295,0.036956701036573676,0.11629116568426673,0.020378044497189343,0.08366347223589364,0.030626142316366383,0.007971945363448677,0.04987395646932685,
0.24617762066611704,0.036848031949032724,0.11546379698780912,0.020370027247049963,0.08356776997498855,0.03059758848880995,0.007960833141573767,0.049939816321007045,
0.24697174202310457,0.036737774314472955,0.1146396058607813,0.02036134844479777,0.08346484818577694,0.030567726712351622,0.007949866421626468,0.05000317732232598,
0.2477658633800921,0.036625972600442175,0.11381878764642264,0.02035202314273995,0.0833547570965615,0.030536567691417608,0.007939043100024053,0.050064043963435195,
0.24855998473707963,0.03651267225708297,0.11300153562858632,0.02034206673466003,0.0832375508131283,0.030504122936327982,0.0079283610447015,0.05012242237268211,
0.24935410609406716,0.036397919693118265,0.11218804093504466,0.020331494949090652,0.0831132873197722,0.030470404765227055,0.007917818100462253,0.050178320340436504,
0.2501482274510547,0.03628176225118833,0.111378492441961,0.020320323842349195,0.08298202847829723,0.03043542630549396,0.007907412094310595,0.050231747342280614,
0.2509423488080422,0.036164248182556064,0.11057307667961873,0.020308569791336543,0.08284384002498033,0.030399201494629526,0.007897140840760382,0.05028271456152562,
0.25173647016502976,0.03604542662119763,0.10977197773949625,0.020296249486099555,0.08269879156548753,0.03036174508061576,0.007887002147114894,0.05033123491101753,
0.2525305915220173,0.03592534755729607,0.1089753771827757,0.020283379922158132,0.08254695656773213,0.030323072621744426,0.007876993818712572,0.0503773230541949,
0.2533247128790048,0.03580406181015547,0.10818345395037177,0.020269978392597955,0.08238841235266454,0.03028320048591179,0.00786711366413346,0.05042099542536054,
0.25411883423599235,0.035681621000553894,0.10739638427456515,0.020256062479930215,0.08222324008298483,0.030242145849376602,0.007857359500361196,0.05046227024912935,
0.2549129555929799,0.0355580775225533,0.10661434159232391,0.020241650047720026,0.08205152474976914,0.030199926694979073,0.007847729157895444,0.050501167559014494,
0.2557070769499674,0.03543348451478518,0.10583749646039362,0.020226759231985254,0.08187335515700199,0.030156561809818443,0.007838220485809726,0.050537709215113615,
0.25650119830695495,0.03530789583123075,0.10506601647223439,0.020211408432367968,0.08168882390400763,0.03011207078238752,0.00782883135674968,0.05057191892085742,
0.2572953196639407,0.035181366011514864,0.10430006617688257,0.02019561630308073,0.08149802736577294,0.030066473999162777,0.007819559671866835,0.0506038222387827,
0.25808944102092823,0.03505395025073315,0.10353980699981122,0.02017940174363039,0.08130106567115693,0.030019792640648763,0.007810403365683025,0.050633446605292114,
0.25888356237791577,0.03492570436883193,0.10278539716586237,0.020162783889322286,0.08109804267898162,0.029972048676876147,0.007801360410880756,0.05066082134436335,
0.2596776837349033,0.03479668477956113,0.10203699162432034,0.020145782101547875,0.08088906595200052,0.029923264862353086,0.007792428823014798,0.05068597768017061,
0.26047180509189083,0.03466694845902029,0.10129474197619388,0.02012841595785925,0.08067424672874142,0.02987346473047003,0.007783606665140492,0.05070894874858193,
0.26126592644887836,0.0345365529138181,0.10055879640377216,0.020110705241834073,0.08045369989322196,0.029822672587358424,0.007774892052354305,0.050729769607496124,
0.2620600478058659,0.03440555614886639,0.09982929960251684,0.020092669932734918,0.0802275439425364,0.029770913505204215,0.0077662831562422905,0.05074847724598417,
0.2628541691628534,0.034274016634829305,0.09910639271535004,0.020074330194967065,0.07999590095231444,0.02971821331501767,0.007757778209232257,0.050765110592200104,
0.26364829051984096,0.03414199327524896,0.09839021326939536,0.020055706367339287,0.07975889654005307,0.029664598598861277,0.007749375508845556,0.05077971052002753,
0.2644424118768285,0.03400954537336881,0.09768089511522564,0.020036818952132232,0.07951665982632405,0.029610096681538203,0.007741073421844521,0.050792319854428815,
0.265236533233816,0.033876732598676455,0.09697856836866975,0.020017688603979372,0.0792693233938608,0.029554735621744106,0.007732870388271717,0.050802983375464815,
0.26603065459080355,0.03374361495318738,0.09628335935522565,0.019998336118565743,0.07901702324452942,0.0294985442026859,0.007724764925377333,0.05081174782095411,
0.2668247759477911,0.0336102527374918,0.09559539055712657,0.019978782421149848,0.07875989875419065,0.029441551922171228,0.007716755631431136,0.05081866188774205,
0.2676188973047786,0.033476706516586296,0.09491478056310158,0.01995904855491452,0.07849809262545963,0.0293837889821733,0.007708841189415589,0.05082377623155059,
0.26841301866176615,0.03334303708551264,0.09424164402087097,0.019939155669152546,0.07823175083837278,0.029325286277875926,0.007701020370596883,0.05082714346538177,
0.2692071400187537,0.03320930543482581,0.09357609159241226,0.019919125007293325,0.07796102259897188,0.02926607538620447,0.007693292037970777,0.05082881815644846,
0.2700012613757412,0.033075572715913625,0.09291822991202989,0.019898977894776956,0.0776860602858172,0.029206188553848662,0.007685655149580267,0.05082885682160814,
0.27079538273272874,0.032941900206190235,0.0922681615472585,0.01987873572678235,0.07740701939444256,0.029145658684783977,0.007678108761702327,0.050827317921276045,
0.27158950408971627,0.03280834927418591,0.0916259849626266,0.01985841995581627,0.07712405847976712,0.02908451932729874,0.00767065203190106,0.050824261851796414,
0.2723836254467038,0.03267498134455552,0.09099179448630373,0.01983805207917034,0.0768373390964798,0.029022804660534505,0.007663284221944803,0.0508197509362515,
0.27317774680369133,0.03254185786302794,0.09036568027965138,0.019817653626253415,0.07654702573741344,0.028960549480547968,0.007656004700584885,0.05081384941369025,
0.27397186816067887,0.03240904026131908,0.08974772830969414,0.019797246145806833,0.0762532857699286,0.02889778918590313,0.0076488129461938755,0.05080662342676009,
0.2747659895176664,0.0322765899220306,0.08913802032452471,0.019776851193010325,0.07595628937032663,0.0288345597628029,0.007641708549261342,0.05079814100772698,
0.27556011087465393,0.03214456814355704,0.08853663383165226,0.01975649031648662,0.07565620945631453,0.02877089776976986,0.0076346912147453,0.05078847206287085,
0.27635423223164146,0.03201303610502325,0.08794364207930143,0.019736185045212993,0.07535322161754485,0.02870684032188636,0.0076277607642776584,0.05077768835524564,
0.277148353588629,0.03188205483127465,0.08735911404066464,0.019715956875348273,0.07504750404425559,0.028642425074604558,0.0076209171382221625,0.0507658634857945,
0.2779424749456165,0.031751685157942425,0.08678311440110809,0.019695827256983905,0.07473923745403681,0.028577690207137425,0.007614160397583458,0.05075307287281311,
0.27873659630260406,0.031621987696605555,0.08621570354832808,0.019675817580828075,0.07442860501675193,0.028512674405442102,0.007607490725766026,0.050739393729755895,
0.2795307176595916,0.03149302280007198,0.08565693756545073,0.019655949164832036,0.07411579227764285,0.028447416844807442,0.007600908430181918,0.05072490504138166,
0.2803248390165791,0.03136485052780042,0.08510686822706547,0.019636243240767872,0.07380098707865014,0.028381957172057905,0.007594413943706323,0.05070968753823708,
0.2811189603735649,0.03123753061148472,0.08456554299817895,0.019616720940767426,0.07348437947798035,0.028316335487386178,0.007588007825980177,0.0506938236694786,
0.2819130817305524,0.031111122420822184,0.08403300503607336,0.019597403283832072,0.07316616166795488,0.028250592325827318,0.007581690764559088,0.05067739757403506,
0.28270720308753994,0.03098568492948717,0.08350929319504939,0.01957831116232323,0.07284652789117528,0.028184768638387318,0.007575463575908084,0.05066049505011537,
0.28350132444452747,0.03086127668133114,0.08299444203403217,0.019559465328443815,0.07252567435504208,0.0281189057728396,0.007569327206241741,0.05064320352306723,
0.284295445801515,0.030737955756830124,0.08248848182701403,0.01954088638072091,0.07220379914466524,0.02805304545420274,0.0075632827322094365,0.05062561201159483,
0.28508956715850253,0.030615779739800224,0.08199143857630582,0.019522594750499982,0.0718811021342063,0.027987229764913198,0.007557331361425565,0.050607811092345086,
0.28588368851549006,0.030494805684401632,0.08150333402856583,0.01950461068846136,0.0715577848966927,0.02792150112470682,0.007551474432844689,0.050589892862874145,
0.2866778098724776,0.0303750900824512,0.08102418569357205,0.01948695425116949,0.07123405061234714,0.02785590227022322,0.007545713416981712,0.0505719509030071,
0.2874719312294651,0.0302566888310637,0.08055400686570112,0.019469645287665916,0.07091010397547505,0.027790476234347203,0.007540049915977267,0.05055408023460589,
0.28826605258645266,0.030139657200641178,0.08009280664807443,0.0194527034261167,0.0705861510999552,0.0277252663253014,0.007534485663508631,0.050536377279761895,
0.2890601739434402,0.030024049803229907,0.07964058997932967,0.019436148060525203,0.07026239942337903,0.027660316105504547,0.007529022524546628,0.050518939817431344,
0.2898542953004277,0.029909920561263875,0.07919735766297357,0.01941999833752124,0.06993905760988559,0.027595669370209665,0.0075236624949589995,0.05050186693853336,
0.29064841665741525,0.029797322676713645,0.07876310639926888,0.01940427314323758,0.06961633545174035,0.02753137012593654,0.007518407700960915,0.050485258999531685,
0.2914425380144028,0.029686308600658996,0.07833782881960662,0.01938899109028475,0.06929444376970634,0.027467462568712974,0.007513260398413314,0.050469217574523,
0.2922366593713903,0.029576930003303584,0.07792151352331254,0.019374170504835284,0.06897359431225765,0.027403991062139022,0.007508222971969944,0.050453845405856394,
0.29303078072837785,0.02946923774444951,0.07751414511683383,0.019359829413828297,0.06865399965368589,0.027341000115288526,0.007503297934073961,0.05043924635330939,
0.2938249020853654,0.029363281844449314,0.07711570425525091,0.01934598553230547,0.06833587309115083,0.02727853436046224,0.00749848792380511,0.05042552534184822,
0.2946190234423529,0.02925911145565273,0.07672616768605663,0.01933265625088941,0.06801942854072801,0.027216638530806518,0.00749379570557855,0.05041278830800068,
0.29541314479934044,0.02915677483436517,0.07634550829514367,0.019319858623415297,0.06770488043250558,0.02715535743781166,0.0074892241676965034,0.050401142144871326,
0.296207266156328,0.029056319313334557,0.07597369515493856,0.019307609354726807,0.06739244360478444,0.02709473594870368,0.007484776320753948,0.0503906946458307,
0.2970013875133155,0.02895779127478313,0.0756106935746192,0.019295924788647067,0.0670823331974355,0.027034818963743185,0.007480455295899671,0.05038155444691065,
0.29779550887030304,0.028861236124000104,0.0752564651523515,0.01928482089613557,0.06677476454446947,0.026975651393444943,0.007476264342954062,0.05037383096793969,
0.29858963022729057,0.028766698263510925,0.07491096782947883,0.019274313263641686,0.06646995306587401,0.02691727813573148,0.007472206828385103,0.05036763435245302,
0.2993837515842781,0.028674221067838703,0.0745741559465965,0.01926441708166555,0.06616811415877424,0.026859744053033745,0.007468286233144067,0.05036307540641317,
0.30017787294126563,0.028583846858872757,0.07424598030144211,0.01925514713353674,0.06586946308797319,0.026803093949351826,0.007464506150362521,0.05036026553577798,
0.30097199429825316,0.028495616881859313,0.07392638820853167,0.019246517784421466,0.06557421487592874,0.026747372547288262,0.007460870282912312,0.05035931668295412,
0.3017661156552407,0.028409571282028562,0.07361532356047004,0.019238542970568265,0.06528258419222457,0.02669262446506656,0.007457382440830228,0.05036034126217472,
0.30256023701222823,0.02832574908187244,0.07331272689086328,0.019231236188802906,0.06499478524259285,0.02663889419354713,0.007454046538609134,0.05036345209384142,
0.30335435836921576,0.028244188159086754,0.07301853543875957,0.019224610486282205,0.06471103165754691,0.02658622607325257,0.007450866592357463,0.0503687623378711,
0.3041484797262015,0.02816492522519114,0.07273268321454508,0.019218678450517043,0.06443153638068257,0.026534664271414224,0.0074478467168289635,0.050376385426089076,
0.30494260108318905,0.028087995804839852,0.07245510106721975,0.019213452199674196,0.06415651155670674,0.026484252759051464,0.007444991122324735,0.0503864349937108,
0.3057367224401766,0.028013434215836214,0.0721857167529781,0.01920894337316682,0.06388616841925307,0.02643503528809508,0.007442304111469596,0.05039902480995545,
0.3065308437971641,0.027941273549862915,0.0719244550050195,0.01920516312254295,0.06362071717854413,0.02638705536856596,0.007439790075864912,0.05041426870783528,
0.30732496515415164,0.02787154565393996,0.07167123760451248,0.01920212210268134,0.0633603669089602,0.02634035624581984,0.007437453492620118,0.050432280513165145,
0.3081190865111392,0.027804281112621797,0.07142598345263708,0.019199830463303768,0.06310532543657511,0.02629498087786896,0.007435298920765217,0.050453173972837516,
0.3089132078681267,0.027739509230944554,0.07118860864362966,0.019198297840812572,0.06285579922671977,0.02625097191279107,0.007433330997546616,0.05047706268240899,
0.30970732922511424,0.027677258018133945,0.0709590265387548,0.019197533350462186,0.06261199327163411,0.02620837166623605,0.0074315544346087925,0.05050406001304462,
0.31050145058210177,0.02761755417208394,0.07073714784112918,0.019197545578872974,0.062374110978268935,0.02616722209904037,0.007429974014064297,0.050534279037867454,
0.3112955719390893,0.0275604230646157,0.07052288067132274,0.019198342576895514,0.06214235405629898,0.026127564794959264,0.007428594584454714,0.05056783245776094,
0.31208969329607683,0.027505888727525844,0.07031613064366292,0.019199931852833186,0.06191692240640891,0.026089440938526245,0.007427421056605301,0.050604832526672465,
0.31288381465306436,0.027453973839432683,0.07011680094316833,0.019202320366030534,0.06169801400891421,0.026052891293049673,0.00742645839937613,0.05064539097646681,
0.3136779360100519,0.027404699713428397,0.06992479240303905,0.019205514520834827,0.06148582481277893,0.026017956178755717,0.0074257116353126104,0.050689618941379105,
0.3144720573670394,0.02735808628554478,0.06974000358263124,0.01920952016093768,0.06128054862509289,0.025984675451086982,0.0074251858361984256,0.05073762688211659,
0.31526617872402696,0.02731415210403933,0.069562330845845,0.019214342564103412,0.0610823770010704,0.025953088479166032,0.00742488611851395,0.05078952450966006,
0.3160603000810145,0.027272914319508287,0.06939166843985507,0.019219986437290403,0.06089149913463322,0.025923234124432686,0.007424817638803389,0.05084542070881521,
0.316854421438002,0.027234388675832367,0.06922790857411547,0.01922645591217153,0.06070810174964066,0.02589515071946411,0.007424985588953914,0.050905423461565305,
0.31764854279498955,0.027198589501960586,0.0690709414995695,0.019233754541059227,0.060532368991829365,0.025868876046986386,0.007425395191390236,0.050969639770276895,
0.3184426641519771,0.02716552970453684,0.06892065558799876,0.019241885293240456,0.060364482321525546,0.025844447319086365,0.007426051694188123,0.0510381755808103,
0.3192367855089646,0.02713522076137344,0.06877693741144507,0.019250850551726467,0.06020462040719245,0.025821901156632493,0.007426960366110481,0.05111113570558747,
0.32003090686595215,0.02710767271577532,0.06863967182164175,0.01926065211042179,0.060052959019875625,0.025801273568913125,0.007428126491569726,0.051188623746669715,
0.3208250282229397,0.027082894171717983,0.06850874202939096,0.01927129117171667,0.059909670928608626,0.02578259993350084,0.007429555365520281,0.05127074201889837,
0.3216191495799272,0.02706089228988166,0.068384029683826,0.01928276834450657,0.05977492579684178,0.025765914976351334,0.007431252288285146,0.051357591473151734,
0.32241327093691474,0.027041672784543596,0.068265414951499,0.019295083642642055,0.059648890079956156,0.025751252752145206,0.0074332225603205805,0.05144927161977188,
0.3232073922939023,0.0270252399213299,0.06815277659523619,0.01930823648381196,0.059531726923924985,0.025738646624880932,0.007435471476923046,0.051545880452215136,
0.3240015136508898,0.027011596515827754,0.06804599205270379,0.01932222568886221,0.059423596065184416,0.025728129248727517,0.0074380043228826544,0.05164751437098028,
0.32479563500787734,0.027000743933058246,0.06794493751463092,0.019337049481552404,0.059324653731775465,0.025719732549144895,0.007440826367087479,0.05175426810786863,
0.32558975636486487,0.026992682087809503,0.06784948800263664,0.019352705488751693,0.05923505254581868,0.02571348770428057,0.007443942857083182,0.05186623465063047,
0.3263838777218524,0.02698740944582942,0.06775951744661075,0.019369190741075223,0.05915494142738252,0.025709425126650764,0.007447359013592499,0.051983505168051954,
0.32717799907883993,0.026984923025876545,0.06767489876159988,0.01938650167396179,0.059084465499806525,0.025707574445114227,0.007451080024999201,0.05210616893553747,
0.3279721204358257,0.026985218402627305,0.06759550392415227,0.01940463412919311,0.05902376599653958,0.02570796448714711,0.00745511104180124,0.052234313261241665,
0.3287662417928132,0.02698828971043709,0.06752120404807682,0.019423583356854478,0.058972980169553414,0.025710623261427024,0.007459457171037904,0.052368023412806046,
0.32956036314980075,0.02699412964795236,0.06745186945957417,0.019443344017736355,0.05893224119939096,0.025715577940734768,0.007464123470695836,0.05250738254475479,
0.3303544845067883,0.027002729483570274,0.06738736977169936,0.01946391018617585,0.05890167810690828,0.025722854845181733,0.0074691149440988674,0.052652471626604025,
0.3311486058637758,0.027014079061741886,0.06732757395811823,0.019485275353336724,0.05888141566676926,0.025732479425771428,0.0074744365342867295,0.052803369371739094,
0.33194272722076335,0.027028166810114513,0.06727235042612122,0.01950743243092614,0.05887157432275059,0.02574447624830327,0.007480093118387705,0.05296015216711411,
0.3327368485777509,0.027044979747508163,0.06722156708886115,0.019530373755345807,0.05887227010491459,0.025758868977627077,0.007486089501990443,0.05312289400382788,
0.3335309699347384,0.027064503492720635,0.06717509143678257,0.019554091092274926,0.05888361454870652,0.025775680362256453,0.007492430413520123,0.05329166640863001,
0.33432509129172594,0.027086722274155234,0.06713279060821317,0.019578575641681875,0.05890571461603237,0.025794932219349424,0.007499120498624306,0.053466538376410744,
0.33511921264871347,0.027111618940264433,0.06709453145908889,0.01960381804326106,0.05893867261837256,0.025816645420064635,0.007506164314573781,0.053647576303727934,
0.335913334005701,0.02713917497080257,0.06706018063178734,0.0196298083822912,0.05898258614198593,0.025840839875301544,0.007513566324683821,0.053834843923423796,
0.33670745536268853,0.027169370488879806,0.06702960462304446,0.01965653619591059,0.05903754797525749,0.025867534521832918,0.00752133089276128,0.05402840224038419,
0.33750157671967607,0.027202184273809275,0.06700266985093242,0.019683990479804736,0.059103646038243,0.025896747308838165,0.0075294622775830145,0.054228309468492504,
0.3382956980766636,0.027237593774738746,0.06697924272087788,0.01971215969530124,0.059180963314461876,0.02592849518484573,0.007537964627411072,0.05443462096882982,
0.33908981943365113,0.02727557512505761,0.06695918969070118,0.019741031776866553,0.059269577784989175,0.025962794085093135,0.007546841974550216,0.05464738918917224,
0.33988394079063866,0.027316103157569528,0.06694237733465933,0.019770594139998696,0.05936956236489636,0.025999658919313037,0.00755609822995327,0.05486666360483618,
0.3406780621476262,0.027359151420420516,0.06692867240647661,0.01980083368950983,0.05948098484208901,0.02603910355995375,0.007565737177879847,0.05509249066092119,
0.3414721835046137,0.02740469219377163,0.06691794190134816,0.019831736828192115,0.05960390781858921,0.026081140830842627,0.007575762470613965,0.05532491371599975,
0.34226630486160126,0.027452696507205162,0.06691005311690366,0.019863289465859905,0.059738388654308194,0.026125782496300813,0.0075861776232461105,0.05556397298730232,
0.3430604262185888,0.027503134157852615,0.06690487371311973,0.019895477028761162,0.05988447941335422,0.02617303925071755,0.0075969860085252595,0.05580970549744548,
0.3438545475755763,0.02755597372923227,0.06690227177117068,0.019928284469350428,0.060042226812918716,0.026222920708592584,0.007608190851786313,0.05606214502275009,
0.34464866893256385,0.02761118261078375,0.06690211585120907,0.019961696276415527,0.06021167217478254,0.02627543539505507,0.007619795225958452,0.05632132204319517,
0.3454427902895514,0.027668727018086415,0.06690427504906854,0.01999569648554988,0.060392851379483,0.026330590736866992,0.007631802046659783,0.056587263694052724,
0.3462369116465389,0.027728572013748044,0.06690861905188251,0.020030268689961855,0.060585794823179925,0.026388393053919688,0.00764421406738366,0.056859993719247506,
0.34703103300352645,0.027790681528950003,0.06691501819261429,0.020065396051612564,0.060790527377258555,0.026448847551231423,0.007657033874781995,0.05713953242648484,
0.347825154360514,0.02785501838563451,0.06692334350349476,0.02010106131267295,0.061007068350704595,0.02651195831145419,0.007670263884050808,0.057425896644188366,
0.3486192757175015,0.027921544319319352,0.06693346676836531,0.020137246807291016,0.06123543145528552,0.02657772828789785,0.007683906334423195,0.057719099680288696,
0.34941339707448904,0.027990220002524907,0.0669452605739247,0.02017393447365964,0.06147562477357024,0.02664615929807956,0.007697963284774798,0.0580191512829027,
0.35020751843147657,0.02806100506879818,0.06695859835987938,0.020211105866375284,0.06172765072981775,0.026717252017806385,0.007712436609346814,0.05832605760294188,
0.3510016397884623,0.028133858137318057,0.06697335446799815,0.020248742169077676,0.06199150606376345,0.026791005975798914,0.007727327993591454,0.05863982115868747,
0.35179576114544986,0.028208736838065997,0.06698940419007313,0.02028682420736028,0.062267181807330256,0.02686741954886358,0.007742638930144713,0.05896044080236801,
0.3525898825024374,0.028285597837545508,0.06700662381478904,0.0203253324619413,0.06255466326428946,0.026946489957621327,0.007758370714931145,0.059287911688774474,
0.3533840038594249,0.02836439686503414,0.06702489067350456,0.020364247082084654,0.06285392999289478,0.027028213262799954,0.0077745244434053295,0.05962222524594613,
0.35417812521641245,0.028445088739351056,0.06704408318494957,0.02040354789926022,0.06316495579151085,0.027112584362097646,0.007791101006934482,0.059963369147959536,
0.3549722465734,0.028527627396123086,0.0670640808988433,0.02044321444103255,0.06348770868725567,0.027199596987624718,0.007808101089326673,0.06031132728985109,
0.3557663679303875,0.028611965915531796,0.06708476453843853,0.020483225945167046,0.06382215092767443,0.027289243703930717,0.007825525163508934,0.06066607976470281,
0.35656048928737505,0.02869805655052407,0.06710601604199783,0.020523561373942473,0.06416823897546034,0.027381515906623577,0.007843373488359433,0.06102760284291884,
0.3573546106443626,0.028785850755468224,0.06712771860320786,0.02056419942865856,0.06452592350623639,0.027476403821587447,0.007861646105697779,0.061395868953719485,
0.3581487320013501,0.028875299215237543,0.0671497567105386,0.02060511856432723,0.0648951494094096,0.027573896504805635,0.007880342837437413,0.061770846668877624,
0.35894285335833764,0.028966351874702943,0.06717201618555421,0.020646297004536185,0.06527585579210723,0.027673981842794786,0.007899463282903913,0.06215250068872099,
0.3597369747153252,0.02905895796861608,0.06719438422018294,0.020687712756473107,0.0656679759862031,0.02777664655365618,0.007919006816322885,0.06254079183042242,
0.3605310960723127,0.029153066051864195,0.06721674941295329,0.020729343626098948,0.06607143755843962,0.027881876188749717,0.007938972584481074,0.0629356770185985,
0.36132521742930024,0.029248624030077743,0.06723900180420402,0.020771167233458693,0.06648616232364955,0.027989655134996103,0.007959359504564058,0.06333710927823566,
0.36211933878628777,0.02934557919057153,0.0672610329102757,0.02081316102811777,0.06691206636107887,0.02809996661781212,0.007980166262173951,0.06374503772996146,
0.3629134601432753,0.029443878233600184,0.06728273575669158,0.020855302304712418,0.06734906003381116,0.028212792704683888,0.008001391309530207,0.06415940758767653,
0.36370758150026283,0.029543467303908215,0.06730400491033528,0.020897568218602086,0.06779704801129124,0.028328114309382372,0.008023032863856645,0.06458016015856229,
0.36450170285725036,0.02964429202255503,0.06732473651063342,0.020939935801612033,0.06825592929494406,0.028445911196825244,0.0080450889059576,0.06500723284547683,
0.3652958242142379,0.02974629751899517,0.06734482829975046,0.020982381977854198,0.06872559724688279,0.02856616198858898,0.008067557178985942,0.06544055915175087,
0.36608994557122543,0.029849428463393585,0.06736417965180348,0.021024883579614476,0.06920593962169852,0.028688844169074426,0.00809043518740564,0.06588006868839352,
0.36688406692821296,0.029953629099155863,0.06738269160110426,0.021067417363294316,0.06969683860132174,0.028813934092328998,0.00811372019615126,0.0663256871837165,
0.3676781882852005,0.03005884327565303,0.06740026686943583,0.021109960025394652,0.07019817083294415,0.028941406989528105,0.008137409229986814,0.06677733649538381,
0.368472309642188,0.030165014481120554,0.06741680989237052,0.021152488218530083,0.07070980746998773,0.02907123697711806,0.00816149907306606,0.0672349346248922,
0.36926643099917555,0.030272085875710942,0.06743222684463637,0.02119497856746116,0.07123161421610559,0.029203397065622232,0.00818598626869628,0.06769839573448645,
0.3700605523561631,0.03038000032467928,0.06744642566453812,0.021237407685132874,0.07176345137219857,0.02933785916911204,0.008210867119307427,0.06816763016651224,
0.3708546737131506,0.030488700431680775,0.06745931607743932,0.021279752188707004,0.07230517388642843,0.02947459411534383,0.008236137686628254,0.06864254446520723,
0.37164879507013815,0.030598128572159662,0.06747080961831149,0.02132198871557638,0.07285663140720847,0.029613571656562004,0.00826179379207101,0.06912304140093037,
0.3724429164271257,0.030708226926808326,0.06748081965335616,0.021364093939348874,0.07341766833914953,0.02975476048096885,0.008287831017326022,0.06960901999682707,
0.3732370377841132,0.03081893751507565,0.06748926140070517,0.021406044585789076,0.07398812390193836,0.02989812822486056,0.008314244705167367,0.07010037555792742,
0.37403115914110074,0.03093020222870352,0.06749605195020408,0.021447817448705563,0.07456783219212398,0.030043641485428797,0.008341029960470621,0.07059699970267203,
0.3748252804980865,0.03104196286527029,0.06750111028228362,0.021489389405771806,0.07515662224778581,0.030191265834226527,0.008368181651443506,0.07109878039685978,
0.37561940185507403,0.031154161161720175,0.06750435728592379,0.0215307374342687,0.07575431811605664,0.03034096583129646,0.00839569441107007,0.0716056019900095,
0.37641352321206156,0.031266738827857354,0.06750571577571475,0.021571838626736853,0.07636073892347141,0.030492705039960013,0.008423562638768861,0.07211734525412627,
0.3772076445690491,0.03137963757978342,0.06750511050801866,0.021612670206526765,0.0769756989491126,0.03064644604226406,0.008451780502265326,0.07263388742486233,
0.3780017659260366,0.03149279917325732,0.06750246819623607,0.021653209543235102,0.07759900770052063,0.030802150455082333,0.008480341939678494,0.07315510224506008,
0.37879588728302416,0.03160616543695659,0.06749771752518018,0.02169343416801545,0.07823046999233721,0.03095977894686802,0.008509240661821866,0.0736808600106645,
0.3795900086400117,0.03171967830561875,0.06749078916456276,0.021733321788751987,0.07886988602764873,0.031119291255053284,0.008538470154718087,0.07421102761898965,
0.3803841299969992,0.03183327985304217,0.06748161578159462,0.021772850305084596,0.07951705148199496,0.03128064620409139,0.008568023682326995,0.07474546861932427,
0.38117825135398675,0.031946912324925504,0.06747013205270339,0.021811997823274247,0.08017175759000808,0.031443801724136265,0.008597894289486232,0.0752840432658584,
0.3819723727109743,0.03206051817152489,0.06745627467437167,0.02185074267089724,0.08083379123464558,0.03160871487035404,0.008628074805063593,0.07582660857291298,
0.3827664940679618,0.03217404008010856,0.06743998237309795,0.021889063411357514,0.08150293503897918,0.03177534184286063,0.008658557845319942,0.07637301837245272,
0.38356061542494935,0.03228742100718846,0.06742119591448294,0.02192693885820591,0.08217896746050218,0.03194363800727883,0.008689335817481441,0.07692312337386138,
0.3843547367819369,0.032400604210508735,0.06739985811144357,0.02196434808925588,0.08286166288791594,0.032113557915908315,0.008720400923519627,0.07747677122595757,
0.3851488581389244,0.03251353328077115,0.06737591383155718,0.02200127046048503,0.08355079174035498,0.03228505532950087,0.008751745164137627,0.07803380658122756,
0.38594297949591194,0.03262615217307795,0.06734931000353794,0.022037685619712206,0.08424612056901072,0.03245808323963306,0.008783360342960683,0.07859407116225099,
0.3867371008528995,0.03273840523807277,0.06731999562284822,0.022073573520039858,0.08494741216111121,0.03263259389166813,0.008815238070928938,0.07915740383029411,
0.387531222209887,0.032850237252760484,0.06728792175644718,0.022108914433051904,0.08565442564621484,0.0328085388082983,0.008847369770890238,0.07972364065604444,
0.38832534356687454,0.032961593450987474,0.06725304154667912,0.0221436889617573,0.08636691660477457,0.0329858688136582,0.008879746682390633,0.08029261499245897,
0.38911946492386207,0.03307241955356385,0.06721531021430419,0.022177878053269956,0.0870846371789288,0.033164534057999705,0.008912359866659923,0.08086415754969759,
0.3899135862808496,0.03318266179800991,0.06717468506067466,0.022211463011215772,0.08780733618547415,0.033344484042918045,0.008945200211789546,0.0814380964721123,
0.39070770763783713,0.03329226696790927,0.06713112546905944,0.0222444255078579,0.08853475923097501,0.033525667647118465,0.00897825843809986,0.08201425741726198,
0.39150182899482466,0.03340118242185172,0.0670845929051205,0.022276747595931696,0.08926664882896379,0.03370803315271253,0.00901152510369373,0.08259246363692051,
0.3922959503518122,0.03350935612194935,0.06703505091654473,0.022308411720180877,0.09000274451918562,0.03389152827203219,0.009044990610193152,0.08317253606004639,
0.3930900717087997,0.03361673666190973,0.06698246513183538,0.022339400728587092,0.09074278298884038,0.03407610017494989,0.009078645208655468,0.08375429337768,
0.39388419306578726,0.03372327329465093,0.0669268032582673,0.022369697883284946,0.09148649819577381,0.034261695516692066,0.009112479005665627,0.08433755212973407,
0.3946783144227748,0.03382891595944295,0.06686803507901085,0.022399286871155267,0.09223362149356928,0.034448260466133016,0.009146481969600665,0.08492212679364126,
0.3954724357797623,0.033933615308561406,0.06680613244942994,0.02242815181408934,0.09298388175849123,0.03463574073455574,0.00918064393706249,0.08550782987482289,
0.39626655713674985,0.03403732273343953,0.06674106929255966,0.022456277278917507,0.09373700551822961,0.03482408160486555,0.00921495461947487,0.08609447199894016,
0.3970606784937374,0.03413999039030505,0.0666728215937693,0.022483648286995322,0.09449271708239466,0.03501322796124228,0.00924940360984036,0.08668186200588938,
0.39785479985072314,0.0342415712252891,0.06660136739461792,0.02251025032344139,0.09525073867471041,0.03520312431921582,0.009283980389652776,0.08726980704550058,
0.39864892120771067,0.034342018998995055,0.06652668678590891,0.022536069346020832,0.09601079056685376,0.035393714856149595,0.009318674335960567,0.08785811267489835,
0.3994430425646982,0.03444128831051537,0.0664487618999516,0.02256109179366879,0.096772591213886,0.03558494344211589,0.00935347472857643,0.0884465829574819,
0.40023716392168573,0.03453933462088535,0.06636757690203757,0.022585304594648796,0.0975358573912215,0.0357767536711465,0.009388370757428157,0.08903502056348064,
0.40103128527867327,0.03463611427596317,0.06628311798114049,0.02260869517434102,0.09830030433307803,0.03596908889284152,0.009423351530045681,0.08962322687204012,
0.4018254066356608,0.03473158452872607,0.0661953733398481,0.022631251462655797,0.09906564587235189,0.036161892244318726,0.009458406079179098,0.09021100207479162,
0.40261952799264833,0.03482570356097275,0.06610433318353595,0.022652961901068188,0.09983159458185976,0.03635510668248532,0.009493523370542229,0.09079814528085813,
0.40341364934963586,0.034918430504423136,0.06600998970879289,0.022673815449269587,0.10059786191688802,0.03654867501661344,0.00952869231067613,0.09138445462324692,
0.4042077707066234,0.035009725461206676,0.06591233709110854,0.022693801591432854,0.10136415835898953,0.03674253994120008,0.009563901754926836,0.09196972736657874,
0.4050018920636109,0.03509954952373079,0.06581137147183376,0.02271291034208768,0.10213019356096552,0.03693664406909186,0.009599140515531412,0.09255376001610123,
0.40579601342059846,0.03518786479392184,0.06570709094442503,0.022731132251603337,0.10289567649297045,0.03713092996485421,0.009634397369806239,0.09313634842793325,
0.406590134777586,0.0352746344018311,0.06559949553998469,0.022748458411276273,0.10366031558967487,0.037325340178364405,0.009669661068431291,0.09371728792048616,
0.4073842561345735,0.035359822523598816,0.06548858721210872,0.022764880458020456,0.10442381889842166,0.0375198172786072,0.009704920343824024,0.09429637338700518,
0.40817837749156105,0.03544339439876967,0.06537436982105488,0.022780390578658702,0.10518589422830835,0.03771430388765127,0.009740163918596315,0.09487339940917407,
0.4089724988485486,0.0355253163469537,0.06525684911724332,0.02279498151381363,0.10594624930012779,0.03790874271478453,0.009775380514087753,0.0954481603717239,
0.4097666202055361,0.03560555578382678,0.06513603272410341,0.022808646561397354,0.10670459189709801,0.03810307659078535,0.009810558858968367,0.09602045057798604,
0.41056074156252365,0.03568408123646519,0.06501193012027963,0.022821379579699163,0.10746063001631073,0.03829724850230718,0.009845687697903841,0.09659006436632793,
0.4113548629195112,0.03576086235800939,0.06488455262121007,0.022833174990071158,0.10821407202082664,0.03849120162635286,0.009880755800276045,0.097156796227409,
0.4121489842764987,0.03583586994165241,0.06475391336009148,0.022844027779212045,0.10896462679234406,0.03868487936481516,0.009915751968951572,0.09772044092219291,
0.41294310563348624,0.035909075933948306,0.06462002726824484,0.022853933501049663,0.10971200388436679,0.0388782253790591,0.00995066504909092,0.09828079360065096,
0.41373722699047377,0.03598045344743721,0.06448291105489554,0.0228628882782232,0.11045591367579535,0.03907118362452213,0.009985483936990693,0.09883764992109043,
0.4145313483474613,0.0360499767725831,0.06434258318638271,0.02287088880316665,0.1111960675248644,0.039263698385307196,0.010020197588951214,0.09939080617004063,
0.41532546970444884,0.03611762138902147,0.06419906386481226,0.022877932338795204,0.11193217792334796,0.03945571430874384,0.010054795030161713,0.09994005938262862,
0.41611959106143637,0.03618336397611402,0.06405237500616835,0.022884016718796748,0.11266395865095312,0.03964717643989202,0.01008926536359522,0.10048520746337453,
0.4169137124184239,0.03624718242280789,0.06390254021789775,0.02288914034753099,0.11339112492982088,0.03983803025596315,0.010123597778905131,0.10102604930733636,
0.41770783377541143,0.03630905583679774,0.06374958477598261,0.022893302199539094,0.11411339357905242,0.040028221700632735,0.010157781561315391,0.10156238492153281,
0.41850195513239896,0.036368964552988714,0.06359353560151645,0.02289650181866711,0.11483048316917747,0.040217697218218544,0.010191806100496048,0.1020940155465724,
0.4192960764893865,0.03642689014125937,0.06343442123679795,0.02289873931680675,0.11554211417647998,0.04040640378769848,0.010225660899416011,0.1026207437784156,
0.420090197846374,0.036482815413523745,0.06327227182095786,0.022900015372257655,0.11624800913709576,0.040594288956541665,0.010259335583164627,0.1031423736901966,
0.42088431920336156,0.03653672443009212,0.06310711906513361,0.02290033122771533,0.11694789280079491,0.04078130087432627,0.01029281990773373,0.10365871095402991,
0.4216784405603473,0.03658860250533053,0.06293899622720647,0.022899688687889438,0.11764149228436176,0.040967388326117876,0.010326103768751723,0.10416956296272675,
0.42247256191733484,0.03663843621261933,0.06276793808611603,0.022898090116757513,0.11832853722448247,0.04115250076558127,0.010359177210161224,0.10467473895134516,
0.4232666832743224,0.036686213388611465,0.06259398091576607,0.022895538434459222,0.11900875993005122,0.04133658834779943,0.010392030432831849,0.10517405011849777,
0.4240608046313099,0.036731923136791744,0.06241716245853622,0.022892037113836864,0.11968189553380323,0.041519601961772415,0.01042465380309955,0.10566730974733883,
0.42485492598829744,0.03677555583033822,0.062237521898413486,0.022887590176627896,0.12034768214318235,0.04170149326256946,0.010457037861224084,0.1061543333261535,
0.42564904734528497,0.036817103114287666,0.06205509983375729,0.022882202189315613,0.12100586099035068,0.04188221470310736,0.010489173329756032,0.10663493866847013,
0.4264431687022725,0.036856557907007044,0.061869938249711626,0.022875878258644337,0.12165617658124551,0.04206171956552806,0.010521051121804969,0.10710894603261686,
0.42723729005926003,0.03689391440097328,0.06168208049027729,0.02286862402680567,0.122298376843589,0.042239961992148446,0.010552662349200293,0.10757617824064224,
0.42803141141624756,0.036929168062864066,0.06149157123005755,0.02286044566630262,0.12293221327375432,0.042416897015955246,0.01058399833053632,0.10803646079651916,
0.4288255327732351,0.036962315632962386,0.06129845644568986,0.022851349874498612,0.12355744108239139,0.042592480590618,0.010615050599093245,0.10848962200355107,
0.42961965413022263,0.03699335512387784,0.06110278338697608,0.022841343867858403,0.12417381933871531,0.04276666961999319,0.01064581091062569,0.10893549308089885,
0.43041377548721016,0.03702228581858818,0.06090460054772352,0.022830435375888514,0.12478111111335863,0.04293942198709221,0.01067627125101058,0.10937390827914556,
0.4312078968441977,0.0370491082678043,0.060703957636308634,0.02281863263478461,0.12537908361968875,0.04311069658248663,0.010706423843746213,0.10980470499481679,
0.4320020182011852,0.03707382428666268,0.060500905545975044,0.022805944380793516,0.12596750835349066,0.04328045333212353,0.010736261157294355,0.11022772388377282,
0.43279613955817275,0.037096436950748844,0.0602954963248774,0.022792379843297805,0.12654616123091425,0.04344865322452435,0.010765775912257467,0.11064280897338873,
0.4335902609151603,0.03711695059145608,0.06008778314588212,0.022777948737631053,0.12711482272458613,0.043615258337340396,0.010794961088383166,0.11104980777343819,
0.4343843822721478,0.037135370790683186,0.05987782027613616,0.02276266125763179,0.12767327799778366,0.04378023186323853,0.010823809931388094,0.11144857138559539,
0.43517850362913535,0.03715170437487578,0.05966566304641422,0.022746528067944655,0.1282213170365703,0.04394353813509039,0.010852315959593612,0.11183895461146998,
0.4359726249861229,0.037165959408415467,0.05945136782025515,0.022729560296077023,0.1287587347797895,0.0441051426504392,0.010880472970365708,0.11222081605908893,
0.4367667463431104,0.037178145186361235,0.059234991962897554,0.022711769524219747,0.12928533124681513,0.04426501209521798,0.010908275046351796,0.11259401824773917,
0.43756086770009794,0.03718827222654775,0.059016593810024956,0.022693167780840625,0.129800911662956,0.044423114366693425,0.010935716561507085,0.11295842771108432,
0.4383549890570855,0.03719635226104513,0.05879623263633011,0.022673767532059252,0.1303052865824115,0.04457941859560996,0.010962792186903443,0.11331391509846851,
0.439149110414073,0.03720239822698523,0.058573968623908394,0.022653581672812027,0.13079827200867647,0.044733895167508766,0.010989496896313709,0.11366035527432015,
0.43994323177106054,0.037206424256758824,0.05834986283048946,0.022632623517816038,0.13127968951229216,0.04488651574319722,0.011015825971564672,0.11399762741556799,
0.44073735312804807,0.03720844566758917,0.05812397715751641,0.022610906792340724,0.1317493663458424,0.04503725327834405,0.011041775007652037,0.11432561510698237,
0.4415314744850356,0.03720847895048668,0.05789637431808178,0.022588445622796185,0.13220713555609268,0.04518608204217658,0.011067339917610889,0.11464420643435405,
0.44232559584202313,0.03720654175859012,0.05766711780472873,0.02256525452714692,0.1326528360931712,0.04533297763525639,0.011092516937135295,0.11495329407542261,
0.44311971719901067,0.037202652894899525,0.057436271857126624,0.02254134840515989,0.13308631291669074,0.04547791700631064,0.011117302628940907,0.11525277538846734,
0.4439138385559982,0.03719683229940636,0.05720390142962901,0.022516742528495767,0.13350741709871272,0.045620878468096385,0.011141693886864595,0.11554255249847334,
0.44470795991298573,0.03718910103562663,0.05697007215872277,0.022491452530652094,0.13391600592345407,0.04576184171227632,0.011165687939695346,0.1158225323807857,
0.4455020812699715,0.03717948127654248,0.05673485033037658,0.0224654943967672,0.13431194298363938,0.04590078782328444,0.011189282354730878,0.11609262694216588,
0.446296202626959,0.03716799628995846,0.05649830284729676,0.0224388844532935,0.134695098273402,0.04603769929116127,0.011212475041054585,0.11635275309916396,
0.44709032398394655,0.037154670423278476,0.05626049719609859,0.02241163935754887,0.1350653482776393,0.046172560023338596,0.011235264252527704,0.11660283285372157,
0.4478844453409341,0.037139529087709726,0.05602150141440087,0.02238377608715473,0.13542257605772823,0.04630535535535462,0.011257648590491788,0.11684279336592161,
0.4486785666979216,0.03712259874190014,0.055781384057851706,0.022355311929369293,0.13576667133351022,0.0464360720604809,0.01127962700617685,0.11707256702380092,
0.44947268805490914,0.03710390687501613,0.05554021416709316,0.02232626447032448,0.13609753056145563,0.04656469835824367,0.011301198802810731,0.117292091510144,
0.4502668094118967,0.03708348198926745,0.05529806123467278,0.02229665158417475,0.13641505700891954,0.046691223921822254,0.011322363637425533,0.11750130986617671,
0.4510609307688842,0.037061353581886516,0.055054995171909454,0.022266491422166277,0.1367191608244041,0.046815639884309077,0.011343121522357245,0.11770017055208094,
0.45185505212587174,0.0370375521265695,0.05481108627572185,0.022235802401634384,0.137009759103744,0.04693793884381577,0.011363472826434988,0.11788862750425211,
0.45264917348285927,0.037012109054386996,0.054566405195426694,0.022204603194937594,0.13728677595213482,0.04705811486741149,0.011383418275856521,0.11806664018922361,
0.4534432948398468,0.03698505673417222,0.054321022899515195,0.022172912718336036,0.13755014254192693,0.04717616349388016,0.011402958954747048,0.11823417365418425,
0.45423741619683433,0.03695642845239497,0.05407501064241553,0.02214075012082212,0.13779979716610932,0.04729208173528465,0.011422096305398644,0.1183911985740166,
0.45503153755382186,0.03692625839253006,0.053828439931249604,0.02210813477291112,0.13803568528741192,0.047405868077327,0.011440832128187903,0.11853769129478677,
0.4558256589108094,0.0368945816139289,0.05358138249259249,0.022075086255399348,0.13825775958295738,0.04751752247849491,0.011459168581169802,0.11867363387361846,
0.4566197802677969,0.036861434030203546,0.05333391023924294,0.022041624348097328,0.13846597998439722,0.047627046367985496,0.011477108179346118,0.11879901411488689,
0.45741390162478446,0.03682685238713284,0.05308609523701368,0.022007769018545266,0.13866031371346965,0.04773444264239954,0.011494653793606967,0.1189138256026711,
0.458208022981772,0.03679087424010027,0.05283800967155048,0.021973540410718098,0.13884073531292107,0.047839715661199544,0.011511808649344537,0.1190180677294061,
0.4590021443387595,0.03675353793107384,0.05258972581518892,0.021938958833727044,0.13900722667273613,0.04794287124092706,0.011528576324738301,0.119111745720679,
0.45979626569574705,0.036714882565138475,0.05234131599385839,0.021904044750524678,0.1391597770516244,0.0480439166481755,0.011544960748711449,0.1191948706561173,
0.4605903870527346,0.03667494798659156,0.052092852554042605,0.02186881876662035,0.13929838309371753,0.04814286059131637,0.011560966198558606,0.1192674594863205,
0.4613845084097221,0.036633774754612984,0.05184440782980635,0.02183330161881247,0.13942304884043136,0.04823971321097804,0.011576597297245238,0.11932953504578958,
0.46217862976670965,0.03659140411852092,0.05159605410989849,0.02179751416394426,0.1395337857374551,0.04833448606927742,0.01159185901037961,0.11938112606181225,
0.4629727511236972,0.03654787799262513,0.05134786360494079,0.02176147736768928,0.13963061263683102,0.04842719213780644,0.011606756642858403,0.11942226715926643,
0.4637668724806847,0.03650323893068973,0.05109990841471309,0.02172521229337302,0.13971355579409314,0.048517845784376575,0.011621295835187654,0.11945299886130702,
0.46456099383767224,0.03645753010001817,0.050852260495545025,0.02168874009083669,0.13978264886043842,0.04860646275852631,0.01163548255948085,0.11947336758590645,
0.4653551151946598,0.036410795255172615,0.05060499162782487,0.02165208198534912,0.13983793286990642,0.04869306017579747,0.011649323115136645,0.11948342563822176,
0.4661492365516473,0.036363078711341174,0.05035817338363581,0.021615259266572626,0.13987945622155018,0.0487776565007882,0.011662824124198832,0.1194832311987666,
0.46694335790863484,0.03631442531736589,0.05011187709453061,0.021578293277588728,0.13990727465658256,0.048860271528991445,0.011675992526401753,0.11947284830736979,
0.46773747926562237,0.03626488042844537,0.049866173819455184,0.02154120540398902,0.13992145123049,0.04894092636742998,0.01168883557390457,0.1194523468429071,
0.4685316006226081,0.03621448987852587,0.04962113431283202,0.02150401706303683,0.13992205628010615,0.04901964341409953,0.011701360825718234,0.11942180249879616,
0.46932572197959566,0.03616329995239492,0.04937682899281427,0.021466749692904928,0.13990916738564527,0.049096446336233786,0.011713576141829348,0.11938129675424944,
0.4701198433365832,0.036111357357491984,0.049133327909721504,0.02142942474199437,0.1398828693276987,0.049171360047405764,0.011725489677025512,0.11933091684128423,
0.4709139646935707,0.03605870919545099,0.04889070071466782,0.021392063658339573,0.13984325403920128,0.04924441068348196,0.011737109874426947,0.11927075570749232,
0.47170808605055825,0.03600540293338968,0.04864901662839347,0.021354687879104415,0.13979042055238008,0.04931562557744687,0.011748445458729684,0.11920091197457634,
0.4725022074075458,0.03595148637496103,0.04840834441031095,0.02131731882017418,0.13972447494070128,0.04938503323311671,0.011759505429165821,0.11912148989266434,
0.4732963287645333,0.03589700763118249,0.04816875232777651,0.021279977865847805,0.13964553025583587,0.04945266329776251,0.011770299052186723,0.11903259929041772,
0.47409045012152085,0.035842015091058735,0.047930308125597905,0.021242686358634962,0.1395537064596688,0.04951854653366411,0.011780835853875269,0.11893435552095181,
0.4748845714785084,0.03578655739201425,0.04769307899578948,0.02120546558916221,0.13944913035138082,0.049582714788617685,0.011791125612093608,0.1188268794035925,
0.4756786928354959,0.03573068339015214,0.04745713154758523,0.021168336786192343,0.1393319354896368,0.049645200965420695,0.011801178348373102,0.11871029716149585,
0.47647281419248344,0.03567444213035587,0.04722253177772096,0.021131321106761008,0.13920226210991785,0.04970603899035944,0.01181100431955352,0.1185847403551624,
0.47726693554947097,0.03561788281625089,0.04698934504099636,0.02109443962643434,0.13906025703704014,0.04976526378072549,0.011820614009178628,0.11845034581188027,
0.4780610569064585,0.03556105478004336,0.04675763602112766,0.021057713329691394,0.13890607359290558,0.04982291121138856,0.011830018118655672,0.11830725555113672,
0.47885517826344604,0.035504007452253475,0.04652746870190196,0.021021163100434902,0.13873987149953654,0.04987901808045417,0.011839227558186467,0.11815561670603957,
0.47964929962043357,0.03544679033136117,0.04629890633864383,0.0209848097126339,0.13856181677744955,0.04993362207403597,0.011848253437478029,0.11799558144079422,
0.4804434209774211,0.035389452953382014,0.04607201143000514,0.020948673821101455,0.13837208163942677,0.04998676173017318,0.011857107056240778,0.11782730686428654,
0.48123754233440863,0.03533204486139173,0.045846845690088775,0.020912775952410846,0.13817084437974972,0.05003847640192533,0.011865799894482722,0.11765095493982348,
0.48203166369139616,0.03527461557501764,0.04562347002091703,0.020877136495953158,0.1379582892589637,0.05008880621967644,0.011874343602608068,0.1174666923910885,
0.4828257850483837,0.03521721455991567,0.04540194448525541,0.020841775695139394,0.13773460638424545,0.05013779205268287,0.011882749991328989,0.1172746906043704,
0.4836199064053712,0.0351598911972518,0.04518232827980274,0.020806713638749915,0.1374999915854504,0.050185475469899335,0.01189103102139931,0.11707512552712894,
0.48441402776235876,0.035102694753207,0.04496467970875809,0.020771970252434168,0.13725464628692172,0.05023189870011877,0.0118991987931792,0.11686817756296312,
0.4852081491193463,0.03504567434852506,0.044749056157775406,0.02073756529036328,0.13699877737514674,0.05027710459146243,0.011907265536040013,0.11665403146305064,
0.4860022704763338,0.034988878928122566,0.04453551406831639,0.020703518327038338,0.13673259706234991,0.050321136570257774,0.011915243597618553,0.11643287621413105,
0.48679639183332135,0.034932357230780725,0.04432410891241239,0.02066984874925678,0.1364563227461171,0.05036403859934227,0.011923145432930337,0.11620490492310764,
0.4875905131903089,0.034876157758938965,0.044114895167845884,0.020636575748239572,0.13617017686514998,0.05040585513583239,0.011930983593351333,0.11597031469834641,
0.4883846345472964,0.03482032874860995,0.04390792629376219,0.020603718311921586,0.13587438675125263,0.05044663108839735,0.011938770715477966,0.11572930652775303,
0.48917875590428395,0.03476491813943625,0.04370325470672191,0.020571295217407585,0.13556918447765848,0.05048641177407835,0.01194651950987533,0.1154820851537124,
0.4899728772612715,0.03470997354490875,0.0435009317572048,0.020539325023596334,0.13525480670380785,0.05052524287469464,0.011954242749723546,0.11522885894497782,
0.490766998618259,0.03465554222276677,0.04330100770657536,0.020507826063975134,0.1349314945166925,0.050563170392878214,0.011961953259372417,0.11496983976559963,
0.49156111997524654,0.0346016710456006,0.04310353170452095,0.020476816439587136,0.13459949326888587,0.05060024060778001,0.011969663902814622,0.11470524284098692,
0.4923552413322323,0.03454840647167655,0.04290855176697275,0.020446314012173804,0.13425905241338318,0.0506365000304907,0.011977387572087814,0.1144352866211976,
0.49314936268921983,0.03449579451600487,0.04271611475452035,0.020416336397494843,0.13391042533537878,0.05067199535922006,0.011985137175616072,0.11416019264155611,
0.49394348404620736,0.03444388072167106,0.04252626635133006,0.020386900958827857,0.13355386918111192,0.050706773434279276,0.011992925626501344,0.11388018538070073,
0.4947376054031949,0.03439271013145069,0.04233905104457791,0.020358024800650115,0.13318964468391603,0.050740881192911404,0.01200076583077547,0.1135954921161648,
0.4955317267601824,0.03434232725972809,0.04215451210440736,0.020329724762504515,0.1328180159876098,0.05077436562401511,0.012008670675623596,0.11330634277759936,
0.49632584811716995,0.03429277606473905,0.041972691564422626,0.020302017413052213,0.1324392504673725,0.05080727372280765,0.012016653017589706,0.11301296979774689,
0.4971199694741575,0.03424409992115746,0.04179363020272769,0.020274919044313874,0.13205361854824724,0.05083965244547342,0.01202472567077522,0.11271560796127893,
0.497914090831145,0.03419634159304581,0.04161736752352175,0.020248445666101705,0.13166139352142087,0.05087154866384467,0.012032901395041543,0.11241449425161218,
0.49870821218813255,0.03414954320718909,0.04144394173926138,0.02022261300064442,0.13126285135842983,0.05090300912016105,0.012041192884227508,0.11210986769582065,
0.4995023335451201,0.03410374622683155,0.041273389753399586,0.020197436477406957,0.13085827052344481,0.050934080381954926,0.01204961275439262,0.11180196920776278,
0.5002964549021076,0.03405899142583553,0.041105747143712054,0.02017293122810711,0.1304479317837895,0.05096480879710957,0.012058173532097137,0.11149104142954545,
0.5010905762590951,0.03401531886328105,0.040941048146220745,0.02014911208193064,0.13003211801885023,0.05099524044913719,0.012066887642729939,0.1111773285714478,
0.5018846976160827,0.03397276785852495,0.04077932563972469,0.020125993560946756,0.12961111402753514,0.05102542111272383,0.012075767398895147,0.11086107625042967,
0.5026788189730702,0.03393137696673764,0.040620611130948024,0.020103589875725608,0.1291852063344435,0.051055396209588384,0.012084824988868361,0.11054253132735188,
0.5034729403300577,0.03389118395493517,0.04046493474031456,0.02008191492115923,0.12875468299490653,0.05108521076470203,0.012094072465133415,0.1102219417430359,
0.5042670616870453,0.03385222577852432,0.040312325188358776,0.02006098227248737,0.1283198333990628,0.05111490936291502,0.012103521733010448,0.10989955635329282,
0.5050611830440328,0.033814538558377565,0.040162809782782354,0.020040805181529515,0.1278809480751316,0.05114453610603692,0.012113184539386077,0.1095756247630516,
0.5058553044010203,0.03377815755845448,0.04001641440616531,0.02002139657312433,0.12743831849204915,0.05117413457041624,0.012123072461556287,0.10925039715971871,
0.5066494257580079,0.03374311716398589,0.0398731635043407,0.020002769041777464,0.12699223686163244,0.05120374776506492,0.012133196896192544,0.10892412414590064,
0.5074435471149954,0.03370945086023627,0.03973308007544128,0.019984934848518765,0.12654299594043542,0.0512334180903727,0.01214356904844166,0.10859705657162286,
0.5082376684719829,0.0336771912118596,0.03959618565962669,0.01996790591796957,0.12609088883146288,0.0512631872974557,0.012154199921169544,0.10826944536617751,
0.5090317898289705,0.03364636984286335,0.039462500329499016,0.01995169383562085,0.1256362087859068,0.05129309644818307,0.01216510030435916,0.10794154136973419,
0.509825911185958,0.03361701741719461,0.039332042681214555,0.019936309845322634,0.1251792490050688,0.05132318587592477,0.012176280764672462,0.10761359516484624,
0.5106200325429455,0.03358916361996191,0.03920482982629934,0.01992176484698504,0.12472030244263252,0.05135349514706293,0.012187751635186218,0.10728585690798657,
0.511414153899933,0.033562837139305746,0.039080877384175254,0.019908069394491152,0.12425966160744872,0.05138406302330818,0.01219952300531123,0.10695857616124572,
0.5122082752569206,0.03353806564893017,0.038960199475403696,0.01989523369382162,0.12379761836699374,0.05141492742486189,0.012211604710904342,0.10663200172432503,
0.5130023966139081,0.03351487579130736,0.038842808715652884,0.01988326760139091,0.12333446375166217,0.051446125394463874,0.012224006324582393,0.10630638146695673,
0.5137965179708956,0.03349329316156617,0.03872871621039502,0.019872180622594805,0.1228704877600518,0.05147769306236436,0.012236737146246974,0.105981962161882,
0.5145906393278832,0.03347334229207529,0.03861793155033864,0.01986198191056855,0.12240597916539758,0.05150966561225795,0.012249806193828768,0.10565898931851747,
0.5153847606848689,0.03345504663773099,0.038510462807601384,0.01985268026515492,0.12194122532330952,0.05154207724821628,0.012263222194259746,0.10533770701743925,
0.5161788820418565,0.033438428561958645,0.03840631653262788,0.019844284132081228,0.12147651198096765,0.051574961162654746,0.0122769935746815,0.10501835774581328,
0.516973003398844,0.03342350932343698,0.03830549775185688,0.019836801602344127,0.12101212308792471,0.051608349505367634,0.012291128453897559,0.10470118223389828,
0.5177671247558315,0.033410309063552836,0.03820800996614165,0.019830240411800773,0.12054834060866464,0.05164227335366464,0.012305634634077335,0.1043864192927467,
0.5185612461128191,0.03339884679459408,0.03811385514992679,0.01982460794096473,0.1200854443370628,0.05167676268364063,0.012320519592719044,0.10407430565322798,
0.5193553674698066,0.03338914038868724,0.03802303375118459,0.019819911215004853,0.11962371171289136,0.05171184634260911,0.012335790474878627,0.10376507580649659,
0.5201494888267941,0.03338120656748605,0.0379355446921132,0.019816156903945087,0.11916341764051032,0.051747552022728176,0.01235145408567146,0.10345896184602542,
0.5209436101837817,0.033375060892616513,0.03785138537059883,0.019813351323062934,0.1187048343098816,0.05178390623584711,0.012367516883053358,0.1031561933113233,
0.5217377315407692,0.03337071775688324,0.03777055166244347,0.019811500433484078,0.11824823102004133,0.05182093428959945,0.012383984970887066,0.10285699703345419,
0.5225318528977567,0.0333681903762413,0.037693037924359046,0.019810609842970422,0.11779387400516234,0.05185866026476811,0.01240086409230011,0.10256159698247277,
0.5233259742547443,0.033367490782537354,0.03761883699772897,0.019810684806898602,0.11734202626333506,0.051897106993945605,0.012418159623339692,0.10227021411688954,
0.5241200956117318,0.03336862981702293,0.0375479402131368,0.01981173022942583,0.1168929473881933,0.05193629604151158,0.0124358765669299,0.10198306623527675,
0.5249142169687193,0.0333716171246424,0.03748033739566205,0.019813750664839692,0.11644689340350618,0.05197624768494834,0.012454019547136307,0.10170036783012441,
0.5257083383257068,0.03337646114909733,0.03741601687094224,0.019816750319088233,0.11600411660085606,0.0520169808975134,0.012472592803742712,0.10142232994405244,
0.5265024596826944,0.033383169128688606,0.03735496547199999,0.01982073305148649,0.11556486538051784,0.05205851333228733,0.012491600187144493,0.10114916002848424,
0.5272965810396819,0.033391747092936915,0.03729716854683355,0.019825702376595408,0.11512938409565203,0.052100861307612656,0.012511045153562762,0.10088106180488325,
0.5280907023966694,0.033402199859981656,0.03724260996676831,0.01983166146626884,0.11469791289992055,0.052144039793939244,0.012530930760583241,0.10061823512865284,
0.528884823753657,0.03341453103475777,0.037191272135566854,0.019838613151864186,0.1142706875986304,0.05218806240208931,0.012551259663023522,0.1003608758557972,
0.5296789451106445,0.0334287430079495,0.037143135999294204,0.019846559926611877,0.11384793950350736,0.05223294137295405,0.012572034109132086,0.10010917571243827,
0.530473066467632,0.03344483695571956,0.037098181056934736,0.019855503948138908,0.11342989529119792,0.0522786875686326,0.01259325593712217,0.09986332216728162,
0.5312671878246196,0.033462812840211804,0.037056385371756644,0.01986544704114118,0.11301677686559465,0.05232531046502224,0.012614926572043344,0.09962349830712154,
0.5320613091816071,0.03348266941082462,0.03701772558341934,0.01987639070019947,0.11260880122407604,0.052372818145867917,0.0126370470229934,0.09938988271547321,
0.5328554305385946,0.03350440420625218,0.036982176920818656,0.019888336092733477,0.11220618032774857,0.05242121729827697,0.01265961788067283,0.09916264935441743,
0.5336495518955822,0.0335280135572899,0.03694971321566442,0.01990128406208841,0.11180912097577475,0.05247051320970418,0.012682639315283944,0.09894196744974104,
0.5344436732525697,0.03355349259040015,0.036920306916784294,0.019915235130748093,0.11141782468386778,0.052520709766410496,0.012706111074776491,0.09872800137945302,
0.5352377946095572,0.03358083523203383,0.03689392910514754,0.019930189503668903,0.11103248756702885,0.052571809453397386,0.012730032483441206,0.09852091056575443,
0.5360319159665448,0.03361003421370281,0.036870549509601634,0.019946147071728267,0.11065330022659993,0.05262381335581756,0.012754402440852656,0.09832084937053748,
0.5368260373235323,0.0336410810777979,0.036850136523314495,0.01996310741528145,0.11028044764170132,0.05267672116186102,0.012779219421162316,0.09812796699448623,
0.5376201586805198,0.03367396618414669,0.03683265722091449,0.019981069807820242,0.10991410906511832,0.052730531167114555,0.012804481472742647,0.09794240737984947,
0.5384142800375074,0.03370867871730477,0.03681807737631997,0.020000033219726977,0.10955445792369901,0.052785240280390826,0.012830186218182648,0.09776430911695262,
0.5392084013944931,0.033745206694573884,0.036806361481249626,0.020019996322117265,0.10920166172331969,0.0528408440310223,0.012856330854635117,0.09759380535451363,
0.5400025227514806,0.033783536974739785,0.036797472764404746,0.020040957490764694,0.10885588195847194,0.05289733657761364,0.012882912154515558,0.09743102371382471,
0.5407966441084682,0.0338236552675222,0.03679137321131378,0.020062914810100564,0.10851727402652042,0.05295471071824535,0.012909926466552462,0.09727608620685936,
0.5415907654654557,0.03386554614372916,0.03678802358482925,0.020085866077281782,0.10818598714667702,0.05301295790211938,0.012937369717188393,0.0971291091583608,
0.5423848868224432,0.033909193046107025,0.03678738344626672,0.02010980880631989,0.10786216428373294,0.053072068242637056,0.012965237412331082,0.09699020313196616,
0.5431790081794308,0.03395457830087764,0.036789411177175,0.020134740232264116,0.10754594207658588,0.053132030531897634,0.01299352463945339,0.0968594728604162,
0.5439731295364183,0.03400168312995325,0.03679406400172657,0.02016065731543144,0.10723745077159601,0.053192832256605156,0.013022226070040862,0.09673701717989912,
0.5447672508934058,0.034050487663819635,0.036801298009716495,0.020187556745676405,0.10693681416079998,0.053254459615369835,0.013051335962385177,0.09662292896857262,
0.5455613722503934,0.03410097095507758,0.03681106818015795,0.020215434946693665,0.1066441495250089,0.05331689753738885,0.01308084816472168,0.09651729508930687,
0.5463554936073809,0.034153110992632144,0.03682332840546215,0.02024428808034599,0.1063595675818112,0.0533801297024903,0.013110756118708836,0.09642019633668636,
0.5471496149643684,0.03420688471651921,0.036838031516189765,0.0202741120510107,0.10608317243849869,0.05344413856252338,0.013141052863247148,0.09633170738830658,
0.547943736321356,0.034262268033358155,0.03685512930636099,0.02030490250993744,0.10581506154992903,0.053508905364075814,0.013171731038634915,0.09625189676039823,
0.5487378576783435,0.034319235832419026,0.03687457255931067,0.020336654859610257,0.10555532568133427,0.05357441017249902,0.013202782891057861,0.0961808267678083,
0.549531979035331,0.03437776200229267,0.036896311074074574,0.02036936425810705,0.10530404887608127,0.05364063189721979,0.013234200277409427,0.09611855348836432,
0.5503261003923186,0.034437819448151434,0.03692029369229269,0.020403025623449565,0.10506130842838628,0.053707548318316777,0.01326597467043824,0.09606512673164515,
0.5511202217493061,0.03449938010958791,0.03694646832561504,0.020437633637937217,0.10482717486098152,0.05377513611433814,0.013298097164219,0.0960205900121781,
0.5519143431062936,0.034562414979018984,0.03697478198359506,0.020473182752458272,0.1046017119077284,0.05384337089133598,0.013330558479942741,0.0959849805270791,
0.5527084644632811,0.03462689412064161,0.037005180802055275,0.02050966719077194,0.10438497650116767,0.05391222721309199,0.013363348972022225,0.09595832913814994,
0.5535025858202687,0.03469278668992685,0.037037610071909595,0.020547080953755237,0.10417701876499387,0.05398167863250747,0.013396458634507797,0.09594066035844273,
0.5542967071772562,0.034760060953638046,0.03707201426842642,0.0205854178236087,0.10397788201143732,0.05405169772413003,0.013429877107808907,0.09593199234329894,
0.5550908285342437,0.0348286843103588,0.037108337080916154,0.020624671368015157,0.10378760274353335,0.05412225611778816,0.013463593685716221,0.09593233688586675,
0.5558849498912313,0.034898623311515976,0.037146521442826874,0.020664834944246195,0.10360621066225534,0.054193324533303396,0.013497597322718824,0.09594169941709771,
0.5566790712482188,0.034969843682882584,0.03718650956223098,0.020705901703211176,0.10343372867848431,0.05426487281624928,0.013531876641610983,0.09596007901021984,
0.5574731926052063,0.03504231034654532,0.03722824295268595,0.02074786459344396,0.10327017292978515,0.05433686997472497,0.013566419941382437,0.09598746838968185,
0.5582673139621939,0.035115987443320826,0.03727166246445198,0.02079071636502278,0.10311555280195563,0.054409284217110526,0.013601215205386142,0.0960238539445593,
0.5590614353191814,0.035190838355604534,0.03731670831604855,0.0208344495734191,0.10296987095531154,0.05448208299076999,0.013636250109776895,0.09606921574641081,
0.5598555566761689,0.03526682573063589,0.03736332012613262,0.020879056583271553,0.10283312335566847,0.054555233021667225,0.013671512032214218,0.09612352757156849,
0.5606496780331565,0.035343911504162995,0.03741143694568024,0.020924529572081567,0.10270529930997696,0.05462870035485884,0.013706988060822463,0.09618675692784466,
0.561443799390144,0.03542205692448988,0.037460997290453706,0.02097086053382725,0.10258638150656549,0.054702450395827405,0.013742665003401024,0.09625886508563274,
0.5622379207471297,0.03550122257688903,0.03751193917373585,0.021018041282492895,0.10247634605994257,0.05477644795261728,0.013778529396877157,0.0963398071133772,
0.5630320421041173,0.035581368408361666,0.037564200139313345,0.02106606345551144,0.1023751625601068,0.05485065727873497,0.013814567516993738,0.09642953191738514,
0.5638261634611048,0.035662453752728314,0.03761771729469023,0.02111491851711786,0.1022827941263104,0.05492504211677468,0.013850765388223985,0.09652798228594765,
0.5646202848180923,0.035744437356031326,0.03767242734451343,0.021164597761611358,0.10219919746521988,0.0549995657427294,0.01388710879390515,0.09663509493773666,
0.5654144061750799,0.03582727740223165,0.03772826662419124,0.021215092316525092,0.10212432293341375,0.05507419101094671,0.01392358328658271,0.09675080057443997,
0.5662085275320674,0.035910931539181505,0.037785171133686186,0.02126639314570204,0.10205811460415569,0.05514888039968824,0.013960174198556642,0.0968750239375941,
0.5670026488890549,0.035995356904854565,0.03784307657146341,0.021318491052276213,0.1020005103383785,0.05522359605725097,0.013996866652620992,0.09700768386957154,
0.5677967702460425,0.036080510153815436,0.03790191836857528,0.02137137668155867,0.10195144185981156,0.05529829984860757,0.014033645572987887,0.09714869337867553,
0.56859089160303,0.03616634748390978,0.03796163172286367,0.021425040523828025,0.10191083483418316,0.05537295340252313,0.014070495696386923,0.09729795970829372,
0.5693850129600175,0.036252824663156706,0.03802215163326025,0.021479472917025656,0.10187860895242554,0.0554475181591043,0.014107401583330695,0.09745538441005815,
0.5701791343170051,0.03633989705682487,0.03808341293416586,0.02153466404935601,0.1018546780178093,0.05552195541773724,0.01414434762953719,0.09762086342095709,
0.5709732556739926,0.03642751965467379,0.0381453503298897,0.021590603961792795,0.10183895003693134,0.055596226385369714,0.014181318077499557,0.09779428714434032,
0.5717673770309801,0.036515647098341916,0.03820789842912911,0.021647282550492145,0.10183132731447807,0.055670292225092274,0.014218297028193608,0.09797554053475806,
0.5725614983879677,0.036604233708862906,0.03827099177947067,0.021704689569114255,0.10183170655168414,0.05574411410497339,0.014255268452913392,0.09816450318657026,
0.5733556197449552,0.03669323351429171,0.03833456490189338,0.021762814631055317,0.10183997894840476,0.055817653247102854,0.01429221620522514,0.09836104942626113,
0.5741497411019427,0.03678260027742211,0.038398552325254534,0.021821647211591876,0.10185603030871769,0.0558908709767976,0.014329124033029628,0.09856504840839019,
0.5749438624589303,0.03687228752357729,0.03846288862073918,0.02188117664994007,0.10187974114996934,0.0559637287719238,0.014365975590723164,0.09877636421510935,
0.5757379838159178,0.03696224856845517,0.03852750843625386,0.021941392151232714,0.10191098681517742,0.056036188312288515,0.014402754451447187,0.09899485595917305,
0.5765321051729053,0.03705243654601017,0.03859234653074556,0.022002282788417395,0.10194963758870126,0.05610821152905466,0.014439444119416535,0.09922037789036602,
0.5773262265298928,0.03714280443635329,0.03865733780842686,0.02206383750407909,0.10199555881508776,0.05617976065413266,0.014476028042316322,0.09945277950527096,
0.5781203478868804,0.03723330509365226,0.03872241735288822,0.0221260451121913,0.10204861102100095,0.05625079826950202,0.01451248962375744,0.09969190566029572,
0.5789144692438679,0.03732389127401379,0.03878752046107859,0.022188894299799776,0.10210865004014001,0.056321287356416255,0.014548812235780587,0.09993759668787776,
0.5797085906008554,0.037414515663329664,0.03885258267713539,0.022252373628643504,0.1021755271410502,0.056391191344444216,0.014584979231398832,0.10018968851578099,
0.580502711957843,0.03750513090506924,0.03891753982604523,0.022316471536717647,0.10224908915772844,0.056460474160301345,0.014620973957168656,0.10044801278939794,
0.5812968333148305,0.03759568962800007,0.03898232804711682,0.02238117633978365,0.10232917862292494,0.056529100276424465,0.014656779765779464,0.10071239699696843,
0.582090954671818,0.03768614447381945,0.039046883827247296,0.02244647623283177,0.10241563390403936,0.05659703475924372,0.014692380028651645,0.10098266459762328,
0.5828850760288056,0.037776448124679105,0.03911114403396384,0.022512359291501787,0.10250828934151038,0.056664243317105484,0.014727758148533205,0.10125863515216017,
0.5836791973857931,0.03786655333058582,0.039175045948222055,0.02257881347346759,0.10260697538959432,0.0567306923478003,0.014762897572085147,0.10154012445645602,
