time,DELT1,DELT3,TRIlg,TRIlat,BIClg,BICsh,BRA,
0.0,0.028578691594410597,0.05339843544523486,0.011748592308965588,0.02789305066698823,0.012398490768104106,0.007233242333811675,0.018320371498776234,
0.0007941213569875316,0.028699663014893306,0.05325997435309974,0.011748897187521791,0.028037354327820896,0.012526327640959518,0.007269375142013205,0.01856709698869925,
0.0015882427139750632,0.02882143260011961,0.05313160673789483,0.011749578995287625,0.02818081298125594,0.012654570435614946,0.0073049144059953814,0.01881369626279478,
0.002382364070962595,0.028943948223087462,0.053013322967633524,0.011750639017614174,0.028323378926058924,0.012783191243846114,0.007339849778214107,0.01906009517808232,
0.0031764854279501265,0.02906715713788062,0.05290510856649332,0.011752078326717437,0.028465004549441116,0.012912161927748493,0.007374171140518444,0.019306219202032154,
0.003970606784937658,0.029191006002490343,0.05280694424742665,0.011753897782182143,0.028605642354893927,0.013041454131035184,0.007407868608537844,0.019551993445246132,
0.00476472814192519,0.02931544090218955,0.05271880594799171,0.011756098031617453,0.028745244990240098,0.013171039290548218,0.0074409325359547675,0.019797342694524444,
0.005558849498912721,0.029440407373454564,0.052640664869367026,0.011758679511463862,0.02888376527588172,0.013300888647977138,0.007473353518661323,0.02004219144629994,
0.006352970855900253,0.029565850428429092,0.05257248751851096,0.011761642447950669,0.02902115623322489,0.013430973261778585,0.007505122398798716,0.02028646394042098,
0.0071470922128877845,0.029691714579924627,0.05251423575342475,0.011764986858203135,0.029157371113260434,0.013561264019290354,0.007536230268678299,0.020530084194263564,
0.007941213569875316,0.02981794386695127,0.052465866831474306,0.011768712551498445,0.02929236342527968,0.013691731649033052,0.007566668474583192,0.020772976037153116,
0.008735334926862848,0.029944481880772346,0.05242733346072403,0.011772819130669415,0.029426086965704094,0.013822346733192327,0.007596428620449485,0.021015063145075917,
0.00952945628385038,0.030071271791475913,0.05239858385423298,0.011777305993654804,0.029558495847006965,0.013953079720274389,0.0076255025714261696,0.021256269075659955,
0.010323577640837911,0.030198256375055795,0.05237956178726115,0.011782172335194886,0.029689544526705424,0.014083900937927284,0.007653882457312989,0.021496517303404718,
0.011117698997824554,0.030325378040994225,0.05237020665733102,0.011787417148670905,0.02981918783640063,0.014214780605920126,0.007681560675875521,0.02173573125513914,
0.011911820354812086,0.03045257886033799,0.05237045354708686,0.011793039228086902,0.02994738101084368,0.014345688849272363,0.007708529896036892,0.021973834345686654,
0.012705941711799618,0.03057980059425928,0.05238023328989243,0.011799037170192258,0.030074079717004844,0.014476595711524832,0.007734783060945603,0.02221075001371618,
0.01350006306878715,0.030706984723092103,0.05239947253810456,0.011805409376743228,0.030199240083123278,0.014607471168144204,0.007760313390919024,0.02244640175775775,
0.01429418442577468,0.030834072475834414,0.052428093833958356,0.011812154056901593,0.030322818727714376,0.014738285140052187,0.007785114386262162,0.02268071317236112,
0.015088305782762212,0.030961004860106014,0.05246601568299692,0.01181926922976847,0.03044477278851181,0.014869007507270757,0.007809179829961477,0.02291360798437583,
0.015882427139749744,0.031087722692551306,0.05251315262997702,0.01182675272705123,0.030565059951321194,0.014999608122674295,0.007832503790253532,0.023145010089330887,
0.016676548496737276,0.031214166629675907,0.0525694153371792,0.011834602195861285,0.030683638478762116,0.01513005682583953,0.00785508062306834,0.023374843587892293,
0.017470669853724807,0.031340277199105024,0.05263471066504946,0.011842815101640584,0.030800467238875244,0.015260323456983851,0.007876904974347353,0.02360303282237648,
0.01826479121071234,0.03146599483125157,0.05270894175509714,0.011851388731214321,0.030915505733571363,0.015390377870982517,0.00789797178223607,0.02382950241329782,
0.01905891256769987,0.031591259891381,0.0527920081149722,0.011860320195967574,0.03102871412689908,0.015520189951455009,0.007918276279151376,0.024054177295928285,
0.019853033924687402,0.03171601271205935,0.052883805705642495,0.011869606435143228,0.031140053273107957,0.015649729624910663,0.007937813993723737,0.02427698275684743,
0.020647155281674934,0.03184019362597041,0.052984227030591094,0.011879244219258574,0.03124948474448385,0.015778966874943595,0.007956580752614382,0.02449784447046089,
0.021441276638662465,0.03196374299908743,0.053093161226950646,0.011889230153637898,0.031356970858933395,0.015907871756466786,0.007974572682207765,0.024716688535465683,
0.022235397995649997,0.032086601264184056,0.053210494158491356,0.011899560682058266,0.03146247470729465,0.016036414409975094,0.007991786210179555,0.024933441511240603,
0.02302951935263664,0.03220870895466861,0.053336108510376984,0.011910232090505653,0.031565960180351176,0.016164565075826805,0.008008218066940465,0.025148030454140453,
0.023823640709624172,0.03233000673872514,0.053469883885602275,0.011921240511038456,0.031667391995526775,0.016292294108533268,0.008023865286956245,0.025360382953672565,
0.024617762066611704,0.03245043545374429,0.05361169690302338,0.011932581925755392,0.03176673572323859,0.01641957199104613,0.008038725209944244,0.025570427168534506,
0.025411883423599235,0.032569936141025976,0.05376142129689207,0.011944252170864632,0.03186395781288634,0.016546369349031604,0.008052795481946878,0.025778091862492157,
0.026206004780586767,0.03268845008073558,0.05391892801780316,0.011956246940851012,0.03195902561845584,0.01667265696512107,0.008066074056282437,0.02598330644007724,
0.0270001261375743,0.032805918827094833,0.0540840853349635,0.011968561792738043,0.032051907423715296,0.016798405793127438,0.008078559194373633,0.026186000982083783,
0.02779424749456183,0.032922284243787577,0.05425675893969002,0.0119811921504414,0.0321425724669831,0.01692358697221651,0.008090249466454286,0.02638610628084325,
0.02858836885154936,0.033037488539560296,0.054436812050043186,0.01199413330921045,0.03223099096544628,0.01704817184102281,0.00810114375215462,0.026583553875258216,
0.029382490208536893,0.033151474303996745,0.05462410551650139,0.012007380440154295,0.032317134139009045,0.017172131951699143,0.008111241240965563,0.02677827608557478,
0.030176611565524425,0.03326418454344505,0.05481849792858168,0.01202092859484887,0.03240097423365142,0.017295439083889357,0.008120541432582506,0.026970206047874045,
0.030970732922511957,0.03337556271707558,0.05501984572231073,0.01203477271002134,0.032482484544278246,0.017418065258613773,0.00812904413712892,0.02715927774826333,
0.03176485427949949,0.033485552773047,0.055228003288450414,0.0120489076123082,0.03256163943703912,0.01753998275205685,0.008136749475260288,0.02734542605674791,
0.03255897563648702,0.0335940991847575,0.055442823081381064,0.012063328023083283,0.03263841437110029,0.017661164109246657,0.008143657878148787,0.02752858676076452,
0.03335309699347455,0.033701146987157655,0.05566415572854591,0.012078028563351802,0.03271278591985025,0.017781582157615952,0.0081497700873491,0.027708696598357913,
0.034147218350461195,0.033806641813100884,0.05589185014035961,0.012093003758706566,0.03278473179152076,0.017901210020434696,0.00815508715454583,0.02788569329098225,
0.034941339707448726,0.033910529929706994,0.056125753620483804,0.012108248044342391,0.03285423084920579,0.01802002113010394,0.008159610441182892,0.02805951557590909,
0.03573546106443626,0.03401275827471392,0.056365711976372676,0.012123755770124643,0.03292126313026109,0.01813798924130127,0.008163341617975318,0.02823010323822432,
0.03652958242142379,0.03411327449279234,0.05661156962999181,0.012139521205707843,0.03298580986506801,0.01825508844396801,0.008166282664303855,0.028397397142396332,
0.03732370377841132,0.0342120269717974,0.0568631697286133,0.012155538545700107,0.033047853495144906,0.01837129317612864,0.008168435867492831,0.028561339263398274,
0.03811782513539885,0.034308964878931494,0.057120354255591095,0.012171801914869263,0.033107377690591085,0.018486578236533102,0.008169803821971612,0.028721872717367355,
0.038911946492386384,0.03440403819679165,0.05738296414102054,0.012188305373386303,0.03316436736684768,0.018600918797112915,0.008170389428320136,0.02887894179178455,
0.039706067849373916,0.03449719775927483,0.05765083937218657,0.012205042922101872,0.03321880870076126,0.01871429041524199,0.008170195892198924,0.02903249197515823,
0.04050018920636145,0.03458839528731425,0.057923819103705934,0.012222008507851373,0.033270689145936005,0.01882666904579371,0.00816922672316397,0.029182469986195766,
0.04129431056334898,0.03467758342441953,0.058201741767269416,0.012239196028784241,0.03331999744736131,0.018938031052985617,0.008167485733366975,0.0293288238024472,
0.04208843192033651,0.034764715771993186,0.05848444518089078,0.012256599339712869,0.03336672365530191,0.01904835322200382,0.008164977036141366,0.029471502688405423,
0.04288255327732404,0.034849746924396,0.05877176665756999,0.012274212257476673,0.03341085913843846,0.019157612770399166,0.008161705044474563,0.029610457223047854,
0.043676674634311574,0.03493263250373372,0.059063543113279396,0.012292028566316634,0.03345239659624711,0.01926578735924777,0.008157674469366978,0.029745639326804567,
0.044470795991299106,0.03501332919433709,0.0593596111741829,0.01231004202325576,0.03349133007060735,0.01937285510406871,0.008152890318078263,0.02987700228793845,
0.04526491734828664,0.03509179477690763,0.059659807282998835,0.012328246363480748,0.03352765495662804,0.01947879458549215,0.008147357892261326,0.030004500788323063,
0.04605903870527328,0.03516798816230108,0.059963967804419434,0.012346635305720213,0.03356136801268193,0.019583584859671408,0.008141082785984702,0.03012809092860439,
0.04685316006226081,0.03524186942492106,0.06027192912950014,0.012365202557614757,0.033592467369640236,0.019687205468432976,0.008134070883643821,0.030247730252732977,
0.047647281419248344,0.0353133998356948,0.06058352777893484,0.01238394182107415,0.033620952539298615,0.01978963644915883,0.008126328357761845,0.030363377771853075,
0.048441402776235876,0.03538254189460358,0.06089860050513339,0.012402846797616903,0.03364682442198768,0.01989085834439588,0.00811786166668067,0.03047499398753617,
0.04923552413322341,0.03544925936274014,0.061216984393020535,0.012421911193687452,0.03367008531336084,0.019990852211187595,0.008108677552142828,0.030582540914346385,
0.05002964549021094,0.03551351729386596,0.06153851695947685,0.012441128725946235,0.03369073891035351,0.02008959963012357,0.008098783036764957,0.030685982101725563,
0.05082376684719847,0.035575282065441256,0.061863036251344254,0.012460493126527925,0.033708790316308176,0.02018708271410306,0.00808818542140361,0.030785282655186375,
0.051617888204186,0.035634521409100776,0.062190380941920455,0.012479998148263073,0.03372424604526065,0.02028328411680894,0.008076892282414157,0.030880409256802077,
0.052412009561173534,0.03569120444054912,0.06252039042586907,0.01249963756985837,0.03373711402538332,0.02037818704088911,0.008064911468803676,0.030971330184981986,
0.053206130918161065,0.035745301688849235,0.06285290491247422,0.012519405201030922,0.03374740360158192,0.02047177524584261,0.00805225109927865,0.03105801533352197,
0.0540002522751486,0.035796785125078674,0.06318776551717036,0.012539294887591786,0.03375512553724315,0.02056403305560838,0.008038919559188451,0.031140436229919896,
0.05479437363213613,0.03584562819032822,0.0635248143512809,0.012559300516474121,0.03376029201513094,0.02065494536585486,0.008024925497365512,0.031218566052946234,
0.05558849498912366,0.035891805823018236,0.06386389460990106,0.01257941602070135,0.03376291663743013,0.020744497650969338,0.008010277822863242,0.03129237964946051,
0.05638261634611119,0.035935294485508675,0.0642048506578629,0.012599635384290713,0.033763014424936795,0.02083267597074622,0.00799498570159277,0.0313618535504647,
0.05717673770309872,0.03597607218997926,0.06454752811372313,0.012619952647087734,0.03376060181539528,0.020919466976774024,0.007979058552859573,0.031426965986385065,
0.05797085906008537,0.0360141185235571,0.06489177393171687,0.012640361909527114,0.033755696660982826,0.02100485791852116,0.007962506045801258,0.031487696901574706,
0.0587649804170729,0.03604941467266971,0.06523743648162254,0.012660857337315659,0.033748318224943036,0.021088836649121243,0.007945338095727623,0.031544027968029104,
0.05955910177406043,0.03608194344660217,0.0655843656264865,0.01268143316603294,0.03373848717737054,0.021171391630858964,0.007927564860364354,0.03159594259830784,
0.06035322313104796,0.036111689300237976,0.06593241279815804,0.01270208370564541,0.03372622559014965,0.02125251194035793,0.007909196736001604,0.03164342595765599,
0.06114734448803549,0.036138638355964134,0.06628143107058886,0.012722803344929852,0.033711556931050546,0.02133218727347249,0.007890244353548828,0.031686464975319135,
0.061941465845023025,0.036162778424721764,0.06663127523085279,0.012743586555802178,0.03369450605698738,0.02141040794988576,0.007870718574497273,0.03172504835504673,
0.06273558720201056,0.03618409902618467,0.06698180184784541,0.01276442789754759,0.0336750992064431,0.021487164917416382,0.007850630486791545,0.031759166584778814,
0.06352970855899809,0.0362025914080491,0.06733286933862538,0.0127853220209483,0.033653363991066616,0.02156244975603707,0.007829991400611722,0.031788811945511745,
0.06432382991598562,0.03621824856441905,0.06768433803236248,0.012806263672305142,0.033629329386448546,0.021636254681608035,0.007808812844067491,0.031813978519339176,
0.06511795127297315,0.0362310652532723,0.06803607023186008,0.012827247697349482,0.033603025722082416,0.02170857254932886,0.0077871065588058595,0.031834662196665024,
0.06591207262996068,0.036241038012993776,0.06838793027262288,0.012848269045042037,0.03357448467051868,0.021779396856912568,0.007764884495533969,0.03185086068258557,
0.06670619398694821,0.036248165177963296,0.06873978457944371,0.01286932277125531,0.033543739235719405,0.02184872174748577,0.007742158809458647,0.03186257350243862,
0.06750031534393575,0.036252446893186206,0.06909150172048603,0.012890404042336427,0.03351082374062216,0.021916542012219046,0.00771894185564429,0.03186980200651787,
0.06829443670092328,0.036253885127955986,0.0694429524588418,0.012911508138547403,0.03347577381392198,0.021982853092691882,0.007695246184290749,0.03187254937395165,
0.06908855805791081,0.036252483688539186,0.06979400980154775,0.012932630457379952,0.033438626376081027,0.022047651082996507,0.007671084535932855,0.03187082061574496,
0.06988267941489745,0.03624824822987385,0.07014454904604532,0.012953766516742142,0.033399419624575696,0.022110932731585275,0.007646469836563321,0.03186462257698512,
0.07067680077188498,0.03624118626627359,0.07049444782407313,0.012974911958014252,0.03335819301839139,0.022172695442866007,0.007621415192680722,0.031853963938210925,
0.07147092212887252,0.036231307181130136,0.07084358614298349,0.012996062548971463,0.033314987261775654,0.022232937278550028,0.007595933886264337,0.03183885521594661,
0.07226504348586005,0.03621862223560837,0.07119184642447801,0.013017214186571105,0.0332698442872609,0.022291656958757504,0.007570039369677534,0.031819308762401806,
0.07305916484284758,0.0362031445763283,0.07153911354076002,0.013038362899602316,0.03322280723796805,0.022348853862884727,0.0075437452605015476,0.031795338764339404,
0.07385328619983511,0.03618488924202946,0.07188527484810467,0.01305950485119616,0.033173920449202816,0.02240452803023797,0.007517065336301386,0.03176696124111375,
0.07464740755682264,0.03616387316921389,0.07223022021785061,0.013080636341194371,0.03312322942935687,0.02245868016043843,0.007490013529325684,0.031734194041882095,
0.07544152891381017,0.03614011519676448,0.07257384206482048,0.01310175380837511,0.033070780840126004,0.02251131161360286,0.007462603921142296,0.03169705684199279,
0.0762356502707977,0.036113636069536124,0.07291603537318027,0.013122853832534196,0.03301662247605853,0.022562424410304066,0.00743485073721144,0.03165557113855397,
0.07702977162778524,0.03608445844091793,0.07325669771975092,0.013143933136420441,0.032960803243446246,0.02261202123131589,0.0074067683413982,0.03160976024518709,
0.07782389298477277,0.03605260687436508,0.0735957292947889,0.013164988587523938,0.03290337313857168,0.022660105417146494,0.007378371230426185,0.0315596492859701,
0.0786180143417603,0.036018107843899826,0.07393303292025509,0.01318601719971625,0.03284438322532475,0.02270668096736426,0.0073496740282741795,0.03150526518857534,
0.07941213569874783,0.03598098973358103,0.07426851406559515,0.013207016134741584,0.032783885612202794,0.02275175253971991,0.00732069148051754,0.03144663667660778,
0.08020625705573536,0.03594128283594304,0.07460208086105731,0.013227982703558292,0.032721933428707585,0.022795325449068635,0.0072914384486161814,0.031383794261149525,
0.0810003784127229,0.03589901934940453,0.07493364410857677,0.013248914367530031,0.03265858080115369,0.022837405666095534,0.007261929904150894,0.031316770231516855,
0.08179449976970954,0.03585423337464833,0.07526311729025853,0.013269808739466243,0.032593882827902286,0.022877999815847632,0.007232180923009838,0.031245598645236416,
0.08258862112669707,0.03580696090997434,0.07559041657449438,0.013290663584511635,0.03252789555403488,0.022917115176075406,0.007202206679526972,0.03117031531724754,
0.0833827424836846,0.03575723984562733,0.07591546081975098,0.013311476820884564,0.03246067594548165,0.02295475967538651,0.007172022440574208,0.031090957808337844,
0.08417686384067213,0.03570510995710214,0.07623817157607048,0.013332246520464483,0.03239228186261892,0.022990941891214013,0.007141643559609077,0.031007565412819516,
0.08497098519765967,0.03565061289742918,0.07655847308432664,0.013352970909228507,0.03232277203335096,0.023025671047601445,0.007111085470679697,0.03092017914545411,
0.0857651065546472,0.03559379218844314,0.07687629227328224,0.013373648367537629,0.03225220602569092,0.023058957012806285,0.007080363682388837,0.030828841727633692,
0.08655922791163473,0.03553469321103865,0.0771915587544958,0.013394277430273027,0.03218064421985609,0.023090810296723517,0.007049493771818885,0.030733597572826687,
0.08735334926862226,0.03547336319441609,0.07750420481512837,0.013414856786823168,0.0321081477798927,0.023121242048130326,0.007018491378419495,0.03063449277129659,
0.08814747062560979,0.03540985120432194,0.07781416540870281,0.013435385280922573,0.032034778624845585,0.023150264051752793,0.006987372197859785,0.03053157507410217,
0.08894159198259732,0.035344208130287685,0.07812137814386985,0.01345586191034316,0.031960599399488074,0.02317788872515513,0.006956151975846902,0.030424893876387735,
0.08973571333958485,0.035276486671871506,0.07842578327123716,0.013476285826439446,0.031885673444627595,0.023204129115451673,0.00692484650191282,0.03031450019997225,
0.09052983469657239,0.03520674132390769,0.07872732366831961,0.013496656333548782,0.03181006476700245,0.02322899889584121,0.006893471603171268,0.03020044667524625,
0.09132395605355992,0.035135028360768365,0.07902594482266996,0.013516972888248109,0.03173383800878521,0.0232525123619633,0.006862043138046739,0.03008278752238537,
0.09211807741054745,0.03506140581964242,0.07932159481325061,0.013537235098468797,0.03165705841670833,0.02327468442807552,0.006830576989977482,0.029961578531889674,
0.0929121987675341,0.034985933482837024,0.07961422429010862,0.013557442722471232,0.03157979181082743,0.023295530623050637,0.006799089061094483,0.02983687704445771,
0.09370632012452162,0.03490867285910671,0.07990378645241689,0.01357759566768105,0.031502104552938,0.02331506708619191,0.006767595265878468,0.029708741930204525,
0.09450044148150916,0.03482968716401559,0.08019023702494606,0.013597693989388995,0.03142406351466077,0.023333310562864713,0.006736111524796926,0.029577233567232773,
0.09529456283849669,0.03474904129933811,0.08047353423303182,0.013617737889316504,0.031345736045211584,0.023350278399942206,0.006704653757923301,0.029442413819566124,
0.09608868419548422,0.034666801831503884,0.08075363877610336,0.013637727714049206,0.03126718993887107,0.023365988541062425,0.006673237878540421,0.029304346014454308,
0.09688280555247175,0.03458303696909228,0.08103051379983985,0.01365766395334075,0.03118849340216999,0.02338045952169406,0.006641879786730372,0.02916309491905888,
0.09767692690945928,0.03449781653938247,0.0813041248670213,0.013677547238289374,0.031109715020805496,0.02339371046400759,0.006610595362952952,0.029018726716529112,
0.09847104826644681,0.034411211963964614,0.08157443992714178,0.013697378339389858,0.031030923726304078,0.023405761071548358,0.006579400461614986,0.028871308981477172,
0.09926516962343435,0.034323296233418135,0.08184142928485241,0.013717158164463606,0.03095218876244673,0.023416631623707756,0.006548310904632701,0.028720910654861924,
0.10005929098042188,0.03423414388106255,0.08210506556730184,0.013736887756469621,0.03087357965147198,0.02342634296998852,0.006517342474989502,0.028567602018290582,
0.10085341233740941,0.03414383095578692,0.08236532369044225,0.013756568291199468,0.030795166160072513,0.02343491652405986,0.006486510910291434,0.028411454667747447,
0.10164753369439694,0.03405243499396356,0.08262218082436877,0.013776201074859207,0.030717018265201124,0.02344237425759785,0.006455831896322701,0.028252541486758986,
0.10244165505138447,0.03396003499045196,0.08287561635775996,0.013795787541541569,0.030639206119701695,0.02344873869390634,0.00642532106060359,0.028090936619004546,
0.103235776408372,0.03386671136869873,0.08312561186148598,0.013815329250591594,0.030561800017781256,0.02345403290131332,0.006394993965953225,0.02792671544038186,
0.10402989776535954,0.03377254594993936,0.08337215105145214,0.01383482788386922,0.03048487036033885,0.023458280486337635,0.006364866104059552,0.02775995453053669,
0.10482401912234618,0.033677621921507646,0.0836152197507434,0.013854285242912306,0.030408487620167433,0.023461505586620694,0.006334952889059024,0.027590731643865853,
0.10561814047933371,0.033582023804258815,0.08385480585113565,0.013873703246003698,0.030332722307044632,0.023463732863617633,0.006305269651128457,0.027419125680002928,
0.10641226183632124,0.033485837419111854,0.08409089927403864,0.013893083925146012,0.03025764493272858,0.023464987495042375,0.0062758316300915535,0.027245216653796023,
0.10720638319330877,0.03338914985271732,0.084323491930934,0.01391242942294787,0.030183325975875062,0.02346529516706082,0.0062466539690425645,0.027069085664786965,
0.1080005045502963,0.033292049422256345,0.08455257768337164,0.013931741989425431,0.030109835846892277,0.02346468206622646,0.006217751707989695,0.026890814866201387,
0.10879462590728384,0.03319462563937668,0.0847781523025863,0.013951023978723163,0.030037244852749407,0.023463174871152404,0.00618913977752075,0.026710487433459267,
0.10958874726427137,0.03309696917327201,0.08500021342879484,0.013970277845757694,0.02996562316175549,0.023460800743914233,0.0061608329924936435,0.026528187532215478,
0.1103828686212589,0.03299917181291046,0.0852187605302339,0.013989506142788877,0.029895040768325117,0.023457587321177528,0.006132846045754344,0.0263440002859401,
0.11117698997824643,0.03290132642841837,0.08543379486199588,0.014008711515921968,0.02982556745774738,0.02345356270504452,0.0061051935018848705,0.026158011743048305,
0.11197111133523396,0.03280352693162555,0.0856453194247202,0.014027896701545084,0.029757272770974636,0.023448755453614037,0.006077889790983991,0.02597030884358979,
0.1127652326922215,0.03270586823577823,0.08585333892319473,0.014047064522706012,0.029690225969447735,0.023443194571249045,0.006050949202483266,0.025780979385507732,
0.11355935404920903,0.03260844621442618,0.08605785972492172,0.014066217885432525,0.029624495999974316,0.02343690949854639,0.0060243858790010735,0.025590111990477553,
0.11435347540619656,0.03251135765949023,0.08625888981869967,0.014085359775000346,0.029560151459676894,0.023429930102003248,0.005998213810237326,0.02539779606933584,
0.11514759676318409,0.032414700238517204,0.08645643877327208,0.014104493252152926,0.02949726056102727,0.023422286663375234,0.0059724468269115386,0.025204121787109908,
0.11594171812017162,0.03231857245112867,0.0866505176960917,0.014123621449277209,0.02943589109698409,0.02341400986872117,0.005947098594746964,0.025009180027658742,
0.11673583947715827,0.03222307358467073,0.08684113919224688,0.01414274756653959,0.0293761104062501,0.02340513079712985,0.005922182608503494,0.02481306235793629,
0.1175299608341458,0.032128303669071816,0.08702831732359587,0.014161874867986162,0.02931798533866583,0.023395680909124347,0.005897712186062061,0.02461586099188806,
0.11832408219113333,0.032034363430915945,0.08721206756815134,0.01418100667761148,0.029261582220756362,0.023385692034739974,0.005873700462563268,0.024417668753992407,
0.11911820354812086,0.03194135424673927,0.08739240677975751,0.014200146375400027,0.0292069668214478,0.023375196361272204,0.005850160384603004,0.02421857904245801,
0.11991232490510839,0.03184937809555763,0.08756935314809827,0.014219297393344477,0.02915420431797003,0.023364226420691022,0.005827104704487787,0.02401868579208943,
0.12070644626209592,0.03175853751063334,0.08774292615907395,0.014238463211444952,0.029103359261962364,0.02335281507671919,0.005804545974552622,0.02381808343683267,
0.12150056761908345,0.03166893553048993,0.08791314655558213,0.014257647353693365,0.02905449554579865,0.023340995511571806,0.005782496541544115,0.02361686687201316,
0.12229468897607099,0.03158067564918371,0.08808003629873576,0.014276853384046979,0.029007676369148392,0.02332880121235559,0.0057609685410716415,0.023415131416278614,
0.12308881033305852,0.03149386176584122,0.08824361852954984,0.01429608490239521,0.028962964205790385,0.0233162659571264,0.00573997389212935,0.023212972773259743,
0.12388293169004605,0.03140859813347263,0.08840391753112589,0.014315345540523773,0.028920420770695246,0.023303423800604538,0.005719524291691767,0.023010486992961925,
0.12467705304703358,0.031324989307070894,0.08856095869136073,0.014334638958080168,0.028880106987393354,0.02329030905954759,0.005699631209385785,0.022807770432901265,
0.1254711744040211,0.031243140091007336,0.08871476846620495,0.014353968838544466,0.02884208295564437,0.02327695629778151,0.00568030588224182,0.022604919718998737,
0.12626529576100864,0.03116315548573479,0.08886537434349376,0.01437333888520928,0.02880640791942463,0.023263400310891216,0.005661559309526914,0.022402031706246325,
0.12705941711799618,0.031085140633809842,0.0890128048073707,0.01439275281717271,0.028773140235248445,0.023249676110572666,0.005643402247662544,0.02219920343915955,
0.1278535384749837,0.031009200765246266,0.089157089303323,0.014412214365348086,0.028742337340839363,0.023235818908649227,0.005625845205229906,0.021996532112030818,
0.12864765983197035,0.03093544114221238,0.08929825820384464,0.014431727268494173,0.02871405572416719,0.02322186410075559,0.005608898438065428,0.02179411502899846,
0.12944178118895788,0.03086396700308551,0.0894363427747418,0.014451295269269367,0.028688350892866477,0.023207847249693637,0.005592571944449244,0.02159204956394649,
0.13023590254594541,0.030794883505877616,0.08957137514209261,0.014470922110313447,0.028665277344052147,0.023193804068465083,0.005576875460389395,0.02139043312025042,
0.13103002390293295,0.030728295671046475,0.08970338825987148,0.014490611530360097,0.02864488853454758,0.023179770402986466,0.005561818455004458,0.021189363090384897,
0.13182414525992048,0.030664308323707645,0.08983241587824582,0.014510367260383532,0.028627236851540526,0.02316578221449317,0.005547410126007323,0.020988936815408893,
0.132618266616908,0.030603026035263183,0.08995849251255082,0.014530193019782338,0.028612373583681922,0.023151875561639484,0.005533659395292825,0.020789251544344876,
0.13341238797389554,0.030544553064463745,0.09008165341294598,0.014550092512603481,0.028600348892642707,0.023138086582302757,0.005520574904631892,0.020590404393468292,
0.13420650933088307,0.030488993297921627,0.09020193453475502,0.014570069423809411,0.02859121178514333,0.023124451475100335,0.005508165011474882,0.020392492305524295,
0.1350006306878706,0.030436450190092907,0.09031937250948865,0.01459012741559086,0.028585010085470704,0.023111006480628676,0.005496437784866748,0.02019561200888878,
0.13579475204485814,0.03038702670274772,0.09043400461654771,0.014610270123727957,0.028581790408497086,0.023097787862434792,0.0054854010014766565,0.01999985997669112,
0.13658887340184567,0.03034082524394867,0.09054586875560172,0.014630501154002001,0.02858159813321511,0.023084831887730816,0.005475062141744631,0.019805332385916193,
0.1373829947588332,0.03029794760655828,0.090655003419636,0.01465082407866016,0.02858447737680316,0.023072174807863298,0.005465428386147776,0.019612125076503655,
0.13817711611582073,0.03025849490629715,0.09076144766865862,0.014671242432935126,0.02859047096923503,0.023059852838549246,0.0054565066115885895,0.019420333510462677,
0.13897123747280826,0.030222567519375618,0.09086524110405599,0.01469175971162162,0.028599620428447416,0.023047902139891666,0.0054483033879078584,0.01923005273102054,
0.1397653588297958,0.030190265019722825,0.09096642384358405,0.014712379365711528,0.02861196593607875,0.0230363587961879,0.005440824974524529,0.019041377321823663,
0.14055948018678244,0.030161686115837836,0.09106503649698043,0.014733104799089153,0.028627546313792565,0.023025258795544522,0.00543407731720496,0.018854401366209868,
0.14135360154376997,0.030136928587288822,0.09116112014218043,0.014753939365287983,0.02864639900019826,0.02301463800931314,0.005428066044963863,0.018669218406570893,
0.1421477229007575,0.030116089220887304,0.09125471630211832,0.014774886364310178,0.02866856002838189,0.023004532171361884,0.00542279646709923,0.018485921403824216,
0.14294184425774503,0.030099263746565567,0.09134586692209315,0.014795949039509817,0.028694064004059293,0.02299497685719765,0.005418273570363449,0.018304602697013467,
0.14373596561473256,0.03008654677298662,0.09143461434767697,0.014817130574540706,0.02872294408436366,0.022986007462955003,0.005414502016272766,0.01812535396305678,
0.1445300869717201,0.03007803172291715,0.09152100130314118,0.014838434090369468,0.028755231957279127,0.022977659184267498,0.005411486138557145,0.01794826617666255,
0.14532420832870763,0.030073810768395222,0.09160507087037598,0.014859862642354319,0.028790957821731918,0.02296996699503797,0.00540922994075254,0.017773429570432146,
0.14611832968569516,0.030073974765725705,0.09168686646827486,0.014881419217389912,0.02883015036835007,0.02296296562612433,0.005407737093937505,0.017600933595169163,
0.1469124510426827,0.03007861319033761,0.09176643183255616,0.014903106731118406,0.0288728367609025,0.022956689543957867,0.005407010934615968,0.0174308668804149,
0.14770657239967022,0.030087814071538897,0.0918438109959913,0.014924928025206747,0.028919042618427718,0.02295117292911114,0.005407054462747939,0.01726331719522973,
0.14850069375665775,0.03010166392720517,0.0919190482690084,0.014946885864689936,0.028968791998062376,0.022946449654832897,0.005407870339929786,0.0170983714092401,
0.14929481511364529,0.03012024769844028,0.09199218822063893,0.014968982935380064,0.02902210737857925,0.022942553265567413,0.00540946088772568,0.01693611545397092,
0.15008893647063282,0.030143648684247962,0.09206327565977351,0.01499122184134058,0.02907900964464408,0.022939516955475945,0.005411828086151657,0.016776634284482946,
0.15088305782762035,0.03017194847625466,0.09213235561669265,0.015013605102425207,0.029139518071800104,0.022937373546977852,0.005414973572313668,0.0166200118413349,
0.151677179184607,0.03020522689352502,0.09219947332483638,0.015036135151880752,0.02920365031218887,0.0229361554693292,0.005418898639200898,0.016466331012889947,
0.15247130054159452,0.0302435619175126,0.09226467420277752,0.015058814334012946,0.029271422381015513,0.02293589473725648,0.0054236042346354945,0.01631567359798614,
0.15326542189858205,0.030287029627189592,0.09232800383636093,0.01508164490191434,0.029342848643766118,0.022936622929663225,0.005429090960379786,0.016168120268990244,
0.1540595432555696,0.030335704134400305,0.09238950796097194,0.015104629015253133,0.029417941804184448,0.022938371168427042,0.005435359071401961,0.01602375053525435,
0.15485366461255712,0.03038965751948424,0.09244923244389638,0.015127768738121735,0.029496712893015028,0.022941170097304783,0.005442408475301012,0.015882642706994566,
0.15564778596954465,0.030448959767215816,0.09250722326673412,0.015151066036943711,0.029579171257518966,0.022945049860963223,0.005450238731891732,0.015744873859610885,
0.15644190732653218,0.030513678703108494,0.09256352650782843,0.015174522778437706,0.02966532455176846,0.02295004008415262,0.005458849052950358,0.015610519798467245,
0.1572360286835197,0.030583879930132233,0.09261818832467322,0.01519814072763682,0.0297551787277256,0.02295616985104031,0.0054682383021214115,0.015479655024150565,
0.15803015004050724,0.030659626765894045,0.0926712549362607,0.015221921545961936,0.02984873802711043,0.0229634676847213,0.005478404994986154,0.015352352698227389,
0.15882427139749478,0.03074098018033225,0.09272277260533182,0.015245866789347334,0.029946004974063026,0.02297196152692277,0.005489347299292943,0.01522868460951656,
0.1596183927544823,0.030827998733975695,0.09277278762049328,0.015269977906416897,0.030046980368603714,0.02298167871791897,0.005501063035349727,0.015108721140896153,
0.16041251411146984,0.030920738516820187,0.09282134627816463,0.015294256236709129,0.030151663280895198,0.022992645976673016,0.005513549676578757,0.014992531236662589,
0.16120663546845737,0.03101925308787489,0.09286849486432039,0.015318703008949235,0.030260051046309834,0.023004889381221496,0.0055268043502335225,0.014880182370459705,
0.1620007568254449,0.031123593415432027,0.09291427963599239,0.015343319339366387,0.030372139261304828,0.023018434349317978,0.005540823838277784,0.014771740513795232,
0.16279487818243243,0.03123380781811396,0.09295874680249924,0.015368106230054308,0.030487921780107712,0.023033305619350835,0.005555604578426491,0.014667270105161929,
0.16358899953941908,0.03134994190675197,0.09300194250637049,0.01539306456737334,0.03060739071221397,0.02304952723155078,0.005571142665348275,0.014566834019780277,
0.1643831208964066,0.03147203852715157,0.09304391280393379,0.015418195120391958,0.03073053642069817,0.02306712250950293,0.005587433852029072,0.01447049353997939,
0.16517724225339414,0.0316001377037997,0.09308470364553616,0.015443498539365979,0.030857347521339732,0.02308611404197817,0.005604473551296357,0.014378308326232521,
0.16597136361038167,0.03173427658456914,0.09312436085537056,0.015468975354253515,0.03098781088256367,0.02310652366509802,0.005622256837503347,0.014290336388863178,
0.1667654849673692,0.031874489386476024,0.09316293011088107,0.015494625973263804,0.031121911626196413,0.023128372444846907,0.005640778448372448,0.014206634060437593,
0.16755960632435674,0.03202080734254642,0.09320045692172182,0.015520450681438043,0.03125963312903636,0.02315168065994542,0.0056600327869971104,0.014127255968858997,
0.16835372768134427,0.03217325864984803,0.09323698660824595,0.01554644963926041,0.03140095702523849,0.02317646778509767,0.00568001392400118,0.014052255011178787,
0.1691478490383318,0.03233186841874317,0.09327256427950374,0.015572622881297536,0.03154586320951177,0.02320275247462569,0.0057007155998546905,0.013981682328139322,
0.16994197039531933,0.032496658623419,0.09330723481073036,0.01559897031486472,0.03169432984112797,0.023230552546503178,0.005722131227345011,0.01391558727946274,
0.17073609175230686,0.03266764805375112,0.09334104282030563,0.015625491718717268,0.031846333348739896,0.02325988496680073,0.0057442538942021285,0.01385401741989992,
0.1715302131092944,0.03284485226855656,0.09337403264617106,0.015652186741765432,0.03200184843600676,0.023290765834554143,0.005767076365876778,0.013797018476053212,
0.17232433446628193,0.033028283550291714,0.0934062483216912,0.015679054901811526,0.032160848088024226,0.023323210367066992,0.005790591088470047,0.013744634323986331,
0.17311845582326946,0.033217950861250824,0.09343773355094849,0.015706095584307914,0.03232330357855618,0.0233572328856585,0.005814790191813023,0.013696906967634393,
0.173912577180257,0.033413859801320105,0.09346853168346393,0.015733308041134757,0.03248918447806512,0.023392846801867137,0.0058396654926949525,0.013653876518026702,
0.17470669853724452,0.03361601256734239,0.0934986856883375,0.015760691389396432,0.032658458662537776,0.0234300646041201,0.005865208498238312,0.013615581173334518,
0.17550081989423116,0.033824407914146544,0.09352823812780532,0.015788244610235806,0.032831092323102114,0.02346889784487843,0.005891410409419149,0.013582057199755682,
0.1762949412512187,0.034039041117295735,0.09355723113021289,0.015815966547665664,0.03300704997643185,0.023509357128267027,0.005918262124730979,0.013553338913247533,
0.17708906260820623,0.0342599039376075,0.09358570636240686,0.015843855907416746,0.03318629447593445,0.023551452098198807,0.005945754243990444,0.013529458662119263,
0.17788318396519376,0.03448698458749859,0.09361370500155065,0.015871911255802125,0.03336878702371811,0.023595191427001484,0.005973877072282928,0.013510446810494325,
0.1786773053221813,0.034720267699206366,0.0936412677063713,0.01590013101859771,0.03355448718333315,0.023640582804555433,0.006002620624046161,0.013496331722653245,
0.17947142667916882,0.034959734294937844,0.09366843458784899,0.015928513479939066,0.03374335289328311,0.023687632927950657,0.006031974627289976,0.01348713974826671,
0.18026554803615635,0.03520536175899673,0.09369524517936305,0.015957056781234765,0.0339353404813007,0.023736347491670473,0.0060619285279501535,0.01348289520852844,
0.18105966939314388,0.03545712381193779,0.09372173840631146,0.015985758920096793,0.03413040467938344,0.023786731178309234,0.006092471494374357,0.013483620383196879,
0.18185379075013142,0.03571499048679677,0.09374795255522415,0.016014617749288695,0.03432849863958397,0.0238387876498312,0.006123592421938088,0.013489335498554475,
0.18264791210711895,0.035978928107443325,0.09377392524239353,0.016043630975692343,0.034529573950549564,0.023892519539377294,0.006155279937788564,0.01350005871629273,
0.18344203346410648,0.036248899269102845,0.09379969338204874,0.016072796159294463,0.03473358065480564,0.023947928443626018,0.006187522405714394,0.013515806123330979,
0.184236154821094,0.036524862821092345,0.09382529315410308,0.01610211071219425,0.03494046726677776,0.024005014915714728,0.0062203079311388835,0.013536591722576256,
0.18503027617808154,0.036806773851813725,0.09385075997150708,0.016131571897633663,0.03515018079154649,0.02406377845872706,0.006253624366234804,0.0135624274246313,
0.18582439753506907,0.03709458367604692,0.09387612844724234,0.01616117682905211,0.03536266674432971,0.024124217519752144,0.006287459315158426,0.013593323040457279,
0.1866185188920566,0.03738823982458359,0.09390143236099524,0.016190922469167507,0.035577869170686796,0.024186329484520656,0.006321800139400613,0.01362928627499747,
0.18741264024904325,0.037687686036240765,0.0939267046255509,0.01622080562908582,0.035795730667439025,0.024250110672623115,0.006356633963252741,0.01367032272176762,
0.18820676160603078,0.037992862252292155,0.09395197725295204,0.01625082296744156,0.0360161924043007,0.02431555633331482,0.006391947679385227,0.013716435858418327,
0.1890008829630183,0.03830370461335342,0.09397728132046812,0.016280970989571698,0.03623919414621512,0.024382660641912086,0.006427727954536391,0.013767627043274338,
0.18979500432000584,0.03862014545875562,0.09400264693642466,0.016311246046725847,0.03646467427639002,0.02445141669678396,0.006463961235309436,0.013823895512855254,
0.19058912567699338,0.038942113328439956,0.0940281032059427,0.0163416443353155,0.036692569820026666,0.02452181651694349,0.006500633754075286,0.013885238380381665,
0.1913832470339809,0.039269532967404444,0.09405367819664179,0.01637216189620546,0.03692281646873664,0.024593851040242132,0.006537731534978999,0.01395165063527036,
0.19217736839096844,0.03960232533273177,0.09407939890436146,0.01640279461405074,0.03715534860564078,0.02466751012217083,0.006575240400047533,0.014023125143621737,
0.19297148974795597,0.03994040760322551,0.09410529121895754,0.01643353821668221,0.03739009933114412,0.02474278253527091,0.006613145975396525,0.014099652649702189,
0.1937656111049435,0.04028369319167989,0.09413137989023171,0.016464388274544633,0.03762700048938087,0.02481965596915771,0.006651433697533875,0.01418122177842379,
0.19455973246193103,0.040632091759806546,0.09415768849405304,0.016495340200190518,0.03786598269532326,0.02489811703115959,0.006690088819757802,0.014267819038823145,
0.19535385381891857,0.040985509235839136,0.09418423939873233,0.016526389247833718,0.03810697536254799,0.02497815124757464,0.006729096418647134,0.014359428828540783,
0.1961479751759061,0.04134384783483517,0.09421105373171028,0.016557530512966327,0.03834990673165396,0.025059743065547087,0.0067684414006414974,0.014456033439302123,
0.19694209653289363,0.04170700608169198,0.09423815134662201,0.016588758932042893,0.03859470389932452,0.02514287585556527,0.006808108508709147,0.014557613063400515,
0.19773621788988116,0.04207487883689154,0.09426555079080032,0.016620069282235736,0.038841292848027786,0.02522753191458255,0.006848082329100146,0.014664145801182485,
0.1985303392468678,0.04244735732498692,0.09429326927328079,0.016651456181265383,0.03908959847634798,0.02531369246976237,0.006888347298182596,0.014775607669534885,
0.19932446060385534,0.0428243291658405,0.09432132263337209,0.016682914087309996,0.039339544629940736,0.025401337682848267,0.006928887709359646,0.014891972611373054,
0.20011858196084287,0.04320567840862227,0.09434972530985493,0.016714437298997843,0.03959105413310533,0.025490446655159513,0.006969687720064973,0.01501321250612879,
0.2009127033178304,0.043591285568573744,0.09437849031087303,0.01674601995548665,0.03984404882096628,0.025580997433212512,0.007010731358834475,0.015139297181236484,
0.20170682467481793,0.043981027666541224,0.09440762918457961,0.016777656036633858,0.0400984495722567,0.025672967014968056,0.007052002532451883,0.015270194424615203,
0.20250094603180546,0.044374778271279336,0.09443715199060193,0.01680933936326165,0.04035417634269574,0.025766331356704048,0.00709348503316604,0.015405869998144172,
0.203295067388793,0.04477240754452361,0.09446706727238664,0.016841063597520696,0.04061114819895175,0.025861065380513196,0.007135162545977576,0.015546287652128572,
0.20408918874578053,0.045173782288828554,0.09449738203048723,0.016872822243356362,0.04086928335318309,0.025957142982424734,0.007177018655992678,0.015691409140752184,
0.20488331010276806,0.045578765998165016,0.09452810169685498,0.016904608647081185,0.04112849919814795,0.02605453704114885,0.007219036855841694,0.015841194238512886,
0.2056774314597556,0.045987218911268266,0.0945592301101933,0.01693641599805726,0.04138871234287404,0.02615321942744258,0.007261200553160296,0.01599560075763665,
0.20647155281674312,0.046398998067725995,0.09459076949243429,0.01696823732949206,0.04164983864887924,0.026253161014095253,0.007303493078130878,0.01615458456646507,
0.20726567417373065,0.0468139573667927,0.09462272042639533,0.017000065519351227,0.04191179326693332,0.026354331686531476,0.007345897691081892,0.016318099608811178,
0.20805979553071818,0.04723194762891465,0.09465508183467258,0.017031893291391653,0.042174490674350994,0.026456700354029326,0.0073883975901427555,0.016486097924277677,
0.20885391688770572,0.04765281665994691,0.09468785095982611,0.017063713216318045,0.04243784471280598,0.026560234961551108,0.007430975918951994,0.01665852966953139,
0.20964803824469325,0.048076409318041594,0.09472102334591005,0.017095517713066076,0.04270176862665534,0.026664902502183827,0.007473615774416178,0.016835343140527214,
0.2104421596016799,0.04850256758318415,0.09475459282140011,0.01712729905021505,0.04296617510176309,0.026770669030186014,0.007516300214517264,0.017016484795674372,
0.21123628095866742,0.048931130629351574,0.09478855148356817,0.017159049347532856,0.04323097630481193,0.026877499674637623,0.007559012266165808,0.01720189927993732,
0.21203040231565495,0.04936193489926436,0.09482288968435229,0.01719076057765583,0.04349608392309094,0.02698535865368902,0.00760173493309754,0.01739152944986314,
0.21282452367264248,0.04979481418170112,0.0948575960177682,0.01722242456790592,0.04376140920474742,0.027094209289405195,0.007644451203810746,0.017585316399526978,
0.21361864502963002,0.050229599691342657,0.09489265730890648,0.01725403300224745,0.04402686299949022,0.027204014023200603,0.007687144059541767,0.017783199487386363,
0.21441276638661755,0.05066612015110932,0.09492805860455739,0.017285577423385535,0.044292355799731634,0.027314734431860145,0.007729796482276008,0.01798511636403495,
0.21520688774360508,0.05110420187695311,0.09496378316550266,0.017317049235007948,0.04455779778215445,0.027426331244141382,0.007772391462791629,0.01819100300084562,
0.2160010091005926,0.051543668865063764,0.09499981246051166,0.017348439704172217,0.04482309884969086,0.027538764357952633,0.007814912008733155,0.018400793719492586,
0.21679513045758014,0.05198434288144519,0.09503612616207656,0.017379739963839392,0.04508816867389902,0.027651992858101573,0.00785734115271214,0.018614421222341547,
0.21758925181456767,0.05242604355381634,0.09507270214391883,0.01741094101555568,0.045352916737722904,0.02776597503460854,0.007899661960431943,0.01883181662369643,
0.2183833731715552,0.052868588465788194,0.09510951648029602,0.01744203373228313,0.04561725237862085,0.027880668401578556,0.00794185753883363,0.019052909481891003,
0.21917749452854274,0.053311793253265835,0.09514654344713669,0.017473008861380018,0.045881084832047545,0.027996029716625768,0.007983911044259957,0.019277627832212835,
0.21997161588553027,0.05375547170302219,0.09518375552502666,0.017503857027731703,0.046144323275274186,0.028112015000843836,0.00802580569063428,0.01950589822064695,
0.2207657372425178,0.05419943585338768,0.0952211234040685,0.01753456873703229,0.04640687687153067,0.028228579559315396,0.008067524757651236,0.01973764573842579,
0.22155985859950533,0.05464349609699773,0.0952586159906328,0.017565134379217303,0.04666865481445385,0.02834567800215377,0.008109051598975904,0.019972794057371856,
0.22235397995649198,0.055087461285537535,0.09529620041601682,0.017595544232047414,0.04692956637282528,0.028463264266069477,0.008150369650448127,0.020211265466018626,
0.2231481013134795,0.05553113883642136,0.09533384204702335,0.01762578846484279,0.047189520935581486,0.028581291636454145,0.008191462438288612,0.020452980906495218,
0.22394222267046704,0.05597433484134098,0.0953715044984697,0.017655857142367747,0.047448428057079536,0.028699712769973934,0.00823231358730329,0.02069786001215963,
0.22473634402745457,0.05641685417661589,0.09540914964763371,0.017685740228865023,0.04770619750260019,0.02881847971766473,0.008272906829082442,0.020945821145964785,
0.2255304653844421,0.05685850061527548,0.0954467376506406,0.0177154275922387,0.047962739294070925,0.028937543948520595,0.008313226010190902,0.021196781439541453,
0.22632458674142963,0.05729907694080099,0.09548422696079263,0.0177449090083848,0.04821796375599058,0.029056856373567072,0.008353255100345756,0.021450656832981408,
0.22711870809841717,0.0577383850624534,0.09552157434883837,0.017774174165668132,0.04847178156153698,0.029176367370410565,0.008392978200577663,0.0217073621153038,
0.2279128294554047,0.05817622613211074,0.09555873492517797,0.017803212669543964,0.048724103778839165,0.029296026808254702,0.008432379551372049,0.021966810965587207,
0.22870695081239223,0.058612400662536056,0.09559566216399568,0.017832014047322667,0.048974841917394825,0.02941578407337433,0.008471443540786286,0.022228915994749524,
0.22950107216937976,0.05904670864699582,0.09563230792930962,0.017860567753075478,0.04922390797461412,0.02953558809503756,0.008510154712538836,0.02249358878795713,
0.2302951935263673,0.05947894968014596,0.09566862250292477,0.017888863172679143,0.04947121448247002,0.02965538737186593,0.008548497774066386,0.022760739947644573,
0.23108931488335482,0.05990892308010072,0.09570455461427273,0.017916889628997068,0.0497166745542356,0.029775129998622425,0.00858645760454481,0.023030279137125447,
0.23188343624034236,0.06033642801159792,0.09574005147211923,0.01794463638719433,0.049960201931288174,0.029894763693416704,0.008624019262869813,0.023302115124774606,
0.2326775575973299,0.06076126361017194,0.0957750587981167,0.017972092660183802,0.05020171102996006,0.030014235825316583,0.008661167995593015,0.023576155828761537,
0.23347167895431742,0.061183229107243955,0.09580952086217794,0.01799924761420023,0.05044111698841479,0.030133493442354456,0.008697889244809142,0.023852308362314268,
0.23426580031130406,0.06160212395603757,0.09584338051964271,0.018026090374499062,0.05067833571352817,0.03025248329991676,0.0087341686559899,0.024130479079492586,
0.2350599216682916,0.062017747958225136,0.09587657925020748,0.018052610031176496,0.05091328392775248,0.030371151889504507,0.00876999208576009,0.024410573621449144,
0.23585404302527913,0.06242990139120962,0.09590905719858574,0.018078795645107004,0.051145879215941915,0.030489445467852167,0.00880534560961137,0.024692496963156434,
0.23664816438226666,0.0628383851359445,0.09594075321686388,0.018104636253994416,0.05137604007211717,0.030607310086391993,0.008840215529549006,0.024976153460577303,
0.2374422857392542,0.06324300080519292,0.09597160490851532,0.0181301208785324,0.05160368594614642,0.03072469162105037,0.008874588381666985,0.025261446898256084,
0.23823640709624172,0.06364355087212568,0.09600154867403365,0.01815523852866999,0.05182873729031952,0.030841535802362388,0.008908450943646671,0.02554828053730725,
0.23903052845322925,0.06403983879915637,0.09603051975814278,0.018179978209977608,0.05205111560579187,0.030957788245890232,0.008941790242174195,0.02583655716377783,
0.23982464981021678,0.06443166916691018,0.09605845229854056,0.018204328930108683,0.052270743488874095,0.031073394482930616,0.008974593560271653,0.02612617913735968,
0.24061877116720432,0.06481884780322276,0.0960852793761299,0.018228279705352027,0.05248754467714291,0.031188299991496082,0.009006848444537127,0.02641704844042702,
0.24141289252419185,0.06520118191206277,0.09611093306669012,0.0182518195672698,0.052701444095348535,0.031302450227554575,0.00903854271228854,0.02670906672737455,
0.24220701388117938,0.06557848020227194,0.09613534449393908,0.01827493756941559,0.052912367901093556,0.0314157906565112,0.009069664458606259,0.027002135374230813,
0.2430011352381669,0.06595055301601484,0.09615844388393485,0.018297622794127288,0.05312024353025735,0.031528266784915576,0.009100202063269298,0.027296155528521403,
0.24379525659515444,0.06631721245682978,0.09618016062076443,0.01831986435938881,0.053324999742139854,0.031639824192377944,0.009130144197579992,0.02759102815935599,
0.24458937795214197,0.06667827251717177,0.09620042330346437,0.018341651425755008,0.05352656666429844,0.031750408563676565,0.009159479831071939,0.027886654107712953,
0.2453834993091295,0.06703354920533702,0.0962191598041181,0.01836297320333371,0.05372487583705078,0.031859965721038774,0.009188198238096017,0.028182934136894957,
0.24617762066611615,0.06738286067165887,0.09623629732707159,0.018383818958818757,0.053919860257616505,0.03196844165657747,0.009216289004279227,0.02847976898312858,
0.24697174202310368,0.06772602733386392,0.09625176246920836,0.01840417802256788,0.05411145442386989,0.032075782564864534,0.009243742032851117,0.02877705940628081,
0.2477658633800912,0.06806287200147697,0.09626548128122314,0.01842403979571894,0.05429959437767544,0.03218193487562217,0.009270547550832491,0.029074706240664744,
0.24855998473707874,0.068393219999163,0.09627737932983219,0.01844339375733821,0.05448421774777788,0.03228684528651282,0.009296696115081205,0.02937261044590673,
0.24935410609406627,0.06871689928889489,0.09628738176085658,0.01846222947159412,0.0546652637922175,0.0323904607960081,0.00932217861818975,0.02967067315784676,
0.2501482274510538,0.06903374059083457,0.09629541336311391,0.018480536594949904,0.05484267344024166,0.03249272873631661,0.0093469862942295,0.029968795739443783,
0.25094234880804134,0.06934357750281643,0.09630139863305212,0.018498304883368573,0.055016389333682914,0.032593596806350406,0.009371110724336345,0.03026687983165725,
0.25173647016502887,0.06964624661832132,0.09630526184005848,0.018515524199523483,0.05518635586777379,0.03269301310470913,0.009394543842132574,0.03056482740427612,
0.2525305915220164,0.06994158764283061,0.09630692709237533,0.01853218452000781,0.05535251923136799,0.03279092616266105,0.009417277938979906,0.030862540806666228,
0.25332471287900393,0.0702294435084496,0.09630631840355285,0.01854827594253628,0.05551482744653747,0.032887284977099425,0.00943930566905854,0.031159922818406616,
0.25411883423599146,0.07050966048669055,0.0963033597593686,0.01856378869313225,0.05567323040751467,0.03298203904345278,0.009460620054267276,0.031456876699785544,
0.254912955592979,0.07078208829930621,0.0962979751851425,0.018578713133293623,0.05582767991894879,0.03307513838852707,0.009481214488939725,0.03175330624212643,
0.2557070769499665,0.07104658022706604,0.09629008881337457,0.018593039767130788,0.055978129733444744,0.03316653360325764,0.009501082744371678,0.03204911581791407,
0.25650119830695406,0.07130299321636795,0.09627962495163257,0.018606759248469912,0.056124535588353494,0.033256175875348876,0.009520218973154889,0.032344210430691175,
0.2572953196639407,0.07155118798358004,0.09626650815061585,0.018619862387914878,0.056266855241781884,0.03334401702177856,0.00953861771331251,0.032638495764695276,
0.25808944102092823,0.07179102911700753,0.09625066327232037,0.018632340159861305,0.05640504850779016,0.03343000952114478,0.009556273892231605,0.03293187823420596,
0.25888356237791577,0.07202238517638229,0.09623201555823048,0.01864418370945605,0.056539077290745365,0.033514106545832006,0.00957318283038819,0.033224265032572226,
0.2596776837349033,0.0722451287897736,0.09621049069746156,0.01865538435949559,0.05666890561879815,0.033596261993973836,0.009589340244860411,0.03351556418088997,
0.26047180509189083,0.07245913674782048,0.0961860148947778,0.01866593361725698,0.0567944996764511,0.03367643052118912,0.009604742252625604,0.03380568457629932,
0.26126592644887836,0.07266429009518839,0.09615851493840916,0.018675823181254738,0.056915827836186386,0.03375456757206839,0.009619385373637055,0.034094536039871726,
0.2620600478058659,0.07286047421915448,0.09612791826759073,0.0186850449479175,0.05703286068912047,0.033830629411387446,0.009633266533676538,0.03438202936405663,
0.2628541691628534,0.07304757893522838,0.09609415303974869,0.01869359101817809,0.05714557107465381,0.03390457315502473,0.009646383066978731,0.03466807635965774,
0.26364829051984096,0.073225498569718,0.0960571481972563,0.018701453703970833,0.05725393410908363,0.03397635680055951,0.009658732718623863,0.034952589902309,
0.2644424118768285,0.07339413203915195,0.09601683353368425,0.018708625534630093,0.05735792721314786,0.03404593925752756,0.009670313646695095,0.0352354839784203,
0.265236533233816,0.07355338292647351,0.09597313975946946,0.01871509926318396,0.05745753013846875,0.03411328037731145,0.009681124424197227,0.0355166737305636,
0.26603065459080355,0.07370315955392365,0.09592599856692732,0.018720867872537378,0.05755272499286471,0.03417834098264214,0.009691164040733634,0.035796075502269646,
0.2668247759477911,0.07384337505253423,0.09587534269453234,0.018725924581538784,0.05764349626449961,0.034241082896689236,0.009700431903938458,0.0360736068822063,
0.2676188973047786,0.07397394742815525,0.09582110599039327,0.01873026285092476,0.05772983084483891,0.0343014689717169,0.009708927840661257,0.03634918674770937,
0.26841301866176615,0.07409479962394426,0.09576322347484985,0.018733876389137216,0.057811718050382294,0.03435946311728292,0.009716652097901488,0.03662273530763737,
0.2692071400187528,0.0742058595792491,0.09570163140211854,0.01873675915800785,0.05788914964314337,0.03441503032795821,0.009723605343490467,0.03689417414452172,
0.2700012613757403,0.07430706028481952,0.09563626732091622,0.018738905378304572,0.057962119849846776,0.034468136710544425,0.009729788666518599,0.03716342625598454,
0.27079538273272785,0.07439833983428695,0.09556707013399127,0.018740309535135065,0.05803062537981428,0.03451874951076754,0.009735203577505864,0.03743041609539629,
0.2715895040897154,0.07447964147185664,0.09549398015649357,0.018740966383202558,0.05809466544151184,0.03456683713942522,0.009739852008313803,0.03769506961174619,
0.2723836254467029,0.07455091363615986,0.09541693917311585,0.01874087095190926,0.058154241757729826,0.034612369197966314,0.009743736311797419,0.037957314288698654,
0.27317774680369045,0.07461211000021867,0.09533589049394016,0.018740018550302877,0.05820935857936983,0.03465531650348068,0.00974685926119569,0.03821707918280955,
0.273971868160678,0.07466318950748085,0.09525077900892523,0.018738404771862154,0.0582600226978118,0.03469565111307792,0.009749224049259557,0.03847429496087692,
0.2747659895176655,0.07470411640388616,0.0951615512409717,0.018736025499117147,0.0583062434558361,0.034733346347634024,0.009750834287116516,0.0387288939364009,
0.27556011087465304,0.0747348602659309,0.09506815539750457,0.018732876908100552,0.058348032757076,0.0347683768148849,0.00975169400287119,0.038980810105128834,
0.2763542322316406,0.07475539602470124,0.09497054142051344,0.018728955472626364,0.0583854050739771,0.034800718431846435,0.009751807639941445,0.03922997917966169,
0.2771483535886281,0.07476570398585124,0.09486866103499368,0.01872425796839245,0.05841837745424066,0.034830348446540836,0.009751180055129918,0.03947633862309922,
0.27794247494561564,0.07476576984550576,0.09476246779573351,0.01871878147690372,0.05844696952572958,0.03485724545900936,0.00974981651643101,0.039719827681701424,
0.27873659630260317,0.07475558470207332,0.09465191713239439,0.018712523389213018,0.058471203499815716,0.03488138944159205,0.009747722700573702,0.039960387416545465,
0.2795307176595907,0.07473514506395815,0.09453696639283457,0.018705481409476768,0.058491104173149386,0.034902761758455386,0.00974490469030076,0.040197960734157205,
0.28032483901657823,0.07470445285316647,0.09441757488462794,0.01869765355832285,0.058506698927832175,0.03492134518434922,0.009741368971385224,0.04043249241609799,
0.2811189603735649,0.07466351540480572,0.09429370391473253,0.01868903817602829,0.05851801772997565,0.03493712392257506,0.009737122429385202,0.04066392914748787,
0.2819130817305524,0.07461234546248069,0.09416531682726641,0.018679633925504615,0.05852509312662986,0.03495008362214779,0.009732172346138403,0.0408922195444474,
0.28270720308753994,0.07455096116959493,0.09403237903935134,0.018669439795088914,0.05852796024106628,0.03496021139413392,0.009726526395997966,0.04111731418044075,
0.28350132444452747,0.07447938605657117,0.0938948580749865,0.01865845510113873,0.05852665676640154,0.03496749582714967,0.009720192641811407,0.041339165611504344,
0.284295445801515,0.07439764902400811,0.09375272359691843,0.01864667949042932,0.05852122295754896,0.03497192700200291,0.009713179530644786,0.041557728400345176,
0.28508956715850253,0.07430578432179638,0.09360594743647543,0.01863411294235194,0.05851170162148666,0.03497349650546342,0.009705495889254486,0.04177295913929451,
0.28588368851549006,0.07420383152422066,0.09345450362133831,0.01862075577091195,0.05849813810583184,0.03497219744314665,0.009697150919309092,0.04198481647210311,
0.2866778098724776,0.07409183550107924,0.09329836840122134,0.01860660862652582,0.058480580285712666,0.03496802445149674,0.009688154192364275,0.042193261114565124,
0.2874719312294651,0.07396984638485692,0.09313752027144157,0.018591672497616344,0.058459078548930093,0.03496097370885516,0.009678515644593658,0.042398255873958623,
0.28826605258645266,0.07383791953399126,0.09297193999435623,0.01857594871200543,0.05843368577940365,0.034951042945601855,0.009668245571279087,0.042599765667291116,
0.2890601739434402,0.07369611549227684,0.09280161061865212,0.01855943893810416,0.05840445733889612,0.034938231453356755,0.00965735462106376,0.042797757538339726,
0.2898542953004277,0.07354449994445494,0.09262651749647319,0.018542145185899934,0.05837145104701402,0.03492254009322977,0.009645853789972,0.04299220067347618,
0.29064841665741525,0.07338314366804186,0.0924466482983758,0.018524069807740667,0.05833472715948195,0.034903971303108496,0.009633754415199723,0.043183066416267624,
0.2914425380144028,0.07321212248145098,0.09226199302610438,0.018505215498916358,0.058294348344690675,0.034882529103973214,0.00962106816867977,0.04337032828084527,
0.2922366593713903,0.07303151718846855,0.09207254402318264,0.01848558529803828,0.058250379658520084,0.034858219105229654,0.00960780705042666,0.04355396196403321,
0.29303078072837696,0.0728414135191462,0.09187829598331985,0.018465182587216553,0.058202888517439946,0.03483104850905072,0.00959398338166539,0.04373394535623086,
0.2938249020853645,0.07264190206717634,0.09167924595663333,0.018444011092036774,0.058151944669892805,0.034801026113718936,0.00957960979774919,0.04391025855104322,
0.294619023442352,0.07243307822382067,0.0914753933536926,0.018422074881336636,0.05809762016596501,0.03476816231596229,0.009564699240871331,0.0440828838536539,
0.29541314479933956,0.07221504210846436,0.09126673994739351,0.018399378366783816,0.05803998932535376,0.03473246911227658,0.009549264952576282,0.044251805787936804,
0.2962072661563271,0.07198789849587132,0.0910532898726735,0.018375926302256294,0.05797912870363927,0.03469396009922853,0.009533320466075688,0.04441701110230291,
0.2970013875133146,0.07175175674021972,0.09083504962408327,0.018351723783026744,0.05791511705687319,0.03465265047273429,0.009516879598374812,0.04457848877427971,
0.29779550887030215,0.07150673069599793,0.09061202805123264,0.01832677624475268,0.05784803530449583,0.03460855702630887,0.009499956442215237,0.04473623001382137,
0.2985896302272897,0.07125293863584549,0.0903842363521315,0.01830108946227416,0.05777796649059628,0.034561698148282784,0.009482565357839775,0.044890228265348685,
0.2993837515842772,0.07099050316542432,0.09015168806445092,0.01827466954822116,0.05770499574353125,0.034512093817982835,0.009464720964585683,0.04504047920851866,
0.30017787294126475,0.0707195511354088,0.08991439905473156,0.01824752295143287,0.05762921023392021,0.03445976560087481,0.009446438132312388,0.045186980757724336,
0.3009719942982523,0.07044021355068464,0.08967238750557054,0.018219656455191285,0.05755069913103542,0.034404736642666474,0.009427731972670087,0.045329733060325755,
0.3017661156552398,0.07015262547684867,0.08942567390082017,0.018191077175271686,0.057469553557607696,0.03434703166237004,0.009408617830215687,0.04546873849361481,
0.30256023701222734,0.06985692594410346,0.08917428100883541,0.018161792557812653,0.057385866543069826,0.03428667694432414,0.009389111273382557,0.04560400166051625,
0.30335435836921487,0.06955325784864251,0.08891823386380977,0.018131810377008395,0.057299732975261586,0.03422370032917593,0.009369228085310806,0.04573552938402879,
0.3041484797262024,0.0692417678516223,0.08865755974524162,0.018101138732626424,0.057211249550621346,0.034158131203824764,0.009348984254544833,0.04586333070041056,
0.30494260108318905,0.06892260627582018,0.08839228815557616,0.018069786047353577,0.05712051472289112,0.034090000490329744,0.009328395965604917,0.04598741685111405,
0.3057367224401766,0.06859592700007737,0.08812245079607005,0.01803776106397354,0.05702762865036353,0.03401934063378412,0.009307479589439767,0.04610780127347651,
0.3065308437971641,0.06826188735162768,0.08784808154092875,0.018005072842379233,0.05693269314170043,0.03394618558916037,0.00928625167376694,0.046224499590172274,
0.30732496515415164,0.06792064799641388,0.08756921640976814,0.0179717307564232,0.05683581160035484,0.033870570807130816,0.009264728933308222,0.046337529597434576,
0.3081190865111392,0.06757237282749413,0.08728589353845422,0.01793774449060962,0.05673708896762917,0.03379253321886905,0.00924292823992693,0.04644691125205481,
0.3089132078681267,0.06721722885164172,0.08699815314837656,0.017903124036631374,0.056636631664404226,0.03371211121983876,0.00922086661267432,0.046552666657168514,
0.30970732922511424,0.06685538607424238,0.08670603751421246,0.017867879689755648,0.05653454753157501,0.033629344652577046,0.009198561207752231,0.046654820046837436,
0.31050145058210177,0.06648701738259373,0.08640959093024063,0.01783202204506182,0.0564309457692312,0.03354427478848055,0.009176029308399166,0.04675339776943821,
0.3112955719390893,0.06611229842771177,0.08610885967526422,0.017795561993535075,0.05632593687462105,0.03345694430860329,0.009153288314707065,0.046848428269868826,
0.31208969329607683,0.06573140750474997,0.08580389197620422,0.01775851071801961,0.056219632578939284,0.0333673972834764,0.009130355733375973,0.046939942070584974,
0.31288381465306436,0.0653445254321366,0.08549473797042524,0.017720879689035005,0.056112145782981016,0.03327567915196033,0.009107249167413916,0.04702797175147871,
0.3136779360100519,0.06495183542953593,0.08518144966685628,0.01768268066045954,0.05600359049170469,0.03318183669914165,0.009083986305789256,0.047112551928612884,
0.3144720573670394,0.06455352299473918,0.08486408090597018,0.017643925665084124,0.05589408174774876,0.03308591803328691,0.00906058491304277,0.04719371923182547,
0.31526617872402696,0.0641497757795909,0.08454268731868496,0.017604627010040473,0.055783735563947875,0.03298797256186743,0.009037062818866761,0.04727151228121837,
0.3160603000810136,0.06374078346505649,0.0842173262842523,0.017564797272107347,0.05567266885489558,0.03288805096666938,0.009013437907658472,0.047345971662546296,
0.31685442143800113,0.06332673763553584,0.08388805688719668,0.017524449292898422,0.055560999367601685,0.03278620517800461,0.008989728108055027,0.04741713990152188,
0.31764854279498866,0.06290783165252797,0.08355493987337013,0.017483596173935523,0.055448845611293936,0.03268248834803867,0.008965951382457166,0.047485061437053666,
0.3184426641519762,0.06248426052775131,0.08321803760518683,0.0174422512716108,0.055336326786414126,0.03257695482325321,0.00894212571654888,0.0475497825934345,
0.3192367855089637,0.06205622079582326,0.08287741401610135,0.01740042819204145,0.055223562712860386,0.03246966011606077,0.008918269108820175,0.0476113515514984,
0.32003090686595126,0.061623910386602344,0.08253313456439564,0.017358140785820476,0.055110673757528185,0.03236066087559108,0.008894399560099997,0.047669818318764746,
0.3208250282229388,0.061187528497295134,0.08218526618633701,0.017315403142667024,0.054997780761203555,0.032250014857668534,0.008870535063106401,0.047725234698589074,
0.3216191495799263,0.06074727546442989,0.08183387724877109,0.017272229585979754,0.05488500496486294,0.03213778089400161,0.008846693592021006,0.04777765425834072,
0.32241327093691385,0.06030335263579712,0.08147903750121135,0.017228634667296572,0.05477246793543488,0.032024018860605644,0.008822893092094592,0.047827132296627724,
0.3232073922939014,0.05985596224245736,0.08112081802748726,0.017184633160664108,0.05466029149107965,0.031908789645481175,0.008799151469290792,0.04787372580959055,
0.3240015136508889,0.05940530727091422,0.08075929119701171,0.017140240056920178,0.054548597626043645,0.03179215511557095,0.008775486579974635,0.04791749345628618,
0.32479563500787645,0.05895159133555057,0.08039453061572724,0.01709547055789244,0.054437508435145936,0.03167417808301927,0.008751916220652722,0.04795849552318511,
0.325589756364864,0.05849501855142367,0.08002661107679081,0.017050340070516312,0.054327146037954785,0.03155492227075826,0.008728458117771608,0.04799679388780416,
0.3263838777218515,0.0580357934075142,0.07965560851105394,0.017004864200875314,0.05421763250271278,0.03143445227744609,0.008705129917581048,0.0480324519814984,
0.32717799907883904,0.057574120640522815,0.07928159993739556,0.016959058748166573,0.05410908977006915,0.031312833541782825,0.008681949176068526,0.04806553475143603,
0.3279721204358257,0.057110205109306214,0.07890466341296272,0.016912939698594552,0.05400163957667868,0.031190132306230377,0.008658933348971488,0.04809610862178034,
0.3287662417928132,0.05664425167004318,0.07852487798337354,0.01686652321919571,0.05389540337872615,0.031066415580163327,0.008636099781873574,0.04812424145410329,
0.32956036314980075,0.056176465052219654,0.07814232363293497,0.016819825651596787,0.05379050227543584,0.03094175110247795,0.008613465700391024,0.048150002507055395,
0.3303544845067883,0.05570704973551997,0.07775708123492672,0.016772863505709324,0.05368705693262569,0.030816207303687344,0.008591048200455371,0.048173462395317494,
0.3311486058637758,0.05523620982771004,0.07736923250200195,0.01672565345336296,0.053585187506365484,0.030689853267530934,0.008568864238698473,0.048194693047859546,
0.33194272722076335,0.054764148943596554,0.07697885993675256,0.016678212321879892,0.05348501356679846,0.030562758692126872,0.008546930622945693,0.048213767665532224,
0.3327368485777509,0.054291070085143986,0.07658604678248637,0.01663055708759287,0.05338665402218557,0.030434993850696614,0.008525264002823125,0.04823076067801724,
0.3335309699347384,0.05381717552283008,0.07619087697426168,0.016582704869308965,0.053290227043231345,0.030306629551890868,0.008503880860484508,0.048245747700162545,
0.33432509129172594,0.05334266667831806,0.07579343509022303,0.016534672921721297,0.05319584998775012,0.03017773709974658,0.00848279750146341,0.048258805487728866,
0.33511921264871347,0.052867744008521976,0.07539380630328034,0.016486478628770843,0.05310363932573094,0.030048388253304994,0.008462030045656132,0.048270011892573794,
0.335913334005701,0.052392606891139885,0.07499207633317216,0.016438139496960318,0.05301371056485918,0.02991865518592089,0.008441594418440739,0.04827944581730025,
0.33670745536268853,0.05191745351172721,0.07458833139895203,0.016389673148622053,0.052926178176552006,0.029788610444293363,0.008421506341937413,0.04828718716939597,
0.33750157671967607,0.05144248075238082,0.07418265817193494,0.016341097315141714,0.05284115552256513,0.029658326907248785,0.008401781326415302,0.04829331681489081,
0.3382956980766636,0.05096788408210225,0.07377514372913997,0.016292429830139663,0.05275875478222649,0.02952787774430652,0.008382434661850846,0.04829791653155863,
0.33908981943365113,0.05049385744890639,0.07336587550726238,0.016243688622611652,0.05267908688035305,0.029397336374058242,0.008363481409642486,0.048301068961690605,
0.3398839407906378,0.05002059317373978,0.0729549412572074,0.016194891710030572,0.052602261415904975,0.029266776422391567,0.008344936394486469,0.04830285756446706,
0.3406780621476253,0.04954828184627054,0.07254242899921619,0.016146057191410785,0.05252838659143164,0.029136271680589087,0.008326814196418411,0.04830336656795437,
0.34147218350461284,0.04907711222260949,0.072128426978612,0.01609720324033659,0.052457569143362304,0.02900589606333345,0.00830912914302508,0.048302680920753974,
0.34226630486160037,0.04860727112502045,0.07171302362219373,0.01604834809795633,0.052389914273193866,0.02887572356664939,0.008291895301830814,0.04830088624333023,
0.3430604262185879,0.048138943343674585,0.0712963074953015,0.01599951006594351,0.05232552557962691,0.028745828225813484,0.008275126472862769,0.048298068779043614,
0.34385454757557543,0.04767231154050212,0.07087836725957734,0.015950707499426352,0.05226450499169978,0.028616284073262315,0.008258836181399045,0.04829431534491591,
0.34464866893256296,0.047207556155191975,0.07045929163144277,0.015901958799887213,0.052206952702970155,0.028487165096529456,0.008243037670903683,0.04828971328215385,
0.3454427902895505,0.04674485531338805,0.07003916934131237,0.015853282408033045,0.05215296710679172,0.0283585451962417,0.008227743896152235,0.048284350406457434,
0.346236911646538,0.04628438473712785,0.0696180890935618,0.01580469679663836,0.05210264473273303,0.028230498144204565,0.008212967516551576,0.04827831495813934,
0.34703103300352556,0.04582631765756774,0.06919613952726611,0.015756220463361833,0.05205608018418372,0.02810309754160703,0.008198720889657368,0.04827169555208126,
0.3478251543605131,0.04537082473003595,0.0687734091777232,0.01570787192353796,0.052013366077192334,0.027976416777375033,0.008185016064892503,0.04826458112755325,
0.3486192757175006,0.044918073951452704,0.0683499864387751,0.015659669702944974,0.051974592980579,0.027850528986703177,0.008171864777469616,0.048257060897921755,
0.34941339707448815,0.04446823058015387,0.06792595952593819,0.015611632330550393,0.051939849357364336,0.02772550700979354,0.008159278442520646,0.04824922430027206,
0.3502075184314757,0.0440214570581529,0.06750141644035254,0.015563778331235437,0.05190922150755519,0.027601423350830292,0.008147268149436185,0.048241160944970544,
0.3510016397884632,0.04357791293587299,0.06707644493355756,0.015516126218499664,0.05188279351232585,0.02747835013721831,0.008135844656417252,0.048232960565192294,
0.35179576114544986,0.043137754799379216,0.06665113247310159,0.015468694487147263,0.05186064717963288,0.027356359079113886,0.008125018385241916,0.04822471296643889,
0.3525898825024374,0.042701136200138094,0.06622556620898967,0.015421501605956381,0.05184286199129934,0.027235521429274795,0.008114799416249013,0.048216507976072125,
0.3533840038594249,0.04226820758732944,0.06579983294097351,0.015374566010332913,0.05182951505160375,0.027115907943257044,0.008105197483541066,0.04820843539288829,
0.35417812521641245,0.04183911624273332,0.06537401908668539,0.015327906094950338,0.05182068103740717,0.02699758883998466,0.008096221970408324,0.04820058493675821,
0.3549722465734,0.041414006218212646,0.06494821065061718,0.01528154020637719,0.05181643214985052,0.026880633762718983,0.008087881904975653,0.048193046198357674,
0.3557663679303875,0.04099301827580935,0.06452249319394394,0.01523548663569388,0.051816838067653095,0.026765111740452825,0.008080185956073849,0.04818590858901354,
0.35656048928737505,0.04057628983047019,0.0640969518051907,0.015189763611100603,0.051821965902041474,0.026651091149755012,0.008073142429336797,0.048179261290690015,
0.3573546106443626,0.04016395489541575,0.06367167107173922,0.015144389290518225,0.05183188015333703,0.026538639677089942,0.008066759263525701,0.04817319320614001,
0.3581487320013501,0.039756144030164114,0.06324673505217109,0.0150993817541841,0.051846642669228546,0.026427824281636387,0.008061044027081452,0.04816779290924634,
0.35894285335833764,0.039352984291218425,0.062822227249442,0.01505475899724489,0.05186631260475511,0.026318711158629403,0.008056003914906053,0.04816314859557761,
0.3597369747153252,0.038954599185425494,0.06239823058488116,0.015010538922348562,0.051890946384022966,0.02621136570324845,0.008051645745373847,0.04815934803318335,
0.3605310960723127,0.03856110862601047,0.061974827373008655,0.014966739332237865,0.05192059766367888,0.026105852475074368,0.008047975957573108,0.048156478513653136,
0.36132521742930024,0.038172628891290465,0.06155209929716261,0.014923377922347656,0.05195531729816088,0.026002235163137575,0.008045000608778403,0.04815462680346458,
0.36211933878628777,0.03778927258606802,0.0611301273859276,0.014880472273408624,0.051995153306745825,0.02590057655157884,0.008042725372154025,0.04815387909564448,
0.3629134601432753,0.037411148605703506,0.06070899199035416,0.014838039844059944,0.05204015084241177,0.025800938485943937,0.00804115553468853,0.04815432096176809,
0.36370758150026194,0.0370383621028633,0.06028877276195894,0.014796097963473608,0.052090352162531516,0.025703381840132447,0.008040295995360356,0.04815603730432077,
0.3645017028572495,0.03667101445693882,0.0598695486314942,0.014754663823993272,0.052145796601412504,0.025607966484020608,0.008040151263534289,0.048159112309446604,
0.365295824214237,0.03630920324612958,0.05945139778847463,0.014713754473790532,0.052206520544696544,0.02551475125177753,0.008040725457588395,0.04816362940010842,
0.36608994557122454,0.035953022222181684,0.05903439766144873,0.01467338680954159,0.052272557405631304,0.02542379391089348,0.008042022303770914,0.0481696711896832,
0.36688406692821207,0.03560256128777148,0.05861862489900182,0.014633577569127514,0.052343937603224186,0.025335151131938134,0.00804404513528643,0.04817731943601745,
0.3676781882851996,0.035257906476521994,0.058204155351476584,0.014594343324361263,0.05242068854228729,0.02524887845906644,0.008046796891610471,0.04818665499596612,
0.36847230964218713,0.03491913993563827,0.057791064053397304,0.01455570047374478,0.05250283459538113,0.025165030281288775,0.008050280118031578,0.048197757780439054,
0.36926643099917467,0.03458633991114625,0.057379425206582894,0.014517665235259578,0.05259039708666287,0.025083659804521555,0.008054496965419685,0.048210706709978436,
0.3700605523561622,0.034259580735717644,0.05696931216393401,0.014480253639194272,0.05268339427764366,0.025004819024433658,0.008059449190219583,0.04822557967089021,
0.37085467371314973,0.03393893281906231,0.05656079741387862,0.014443481521012741,0.052781841354858056,0.024928558700103534,0.008065138154668017,0.04824245347195279,
0.37164879507013726,0.033624462640867554,0.056153952565460526,0.014407364514266463,0.05288575041944688,0.02485492832850106,0.008071564827232883,0.04826140380172541,
0.3724429164271248,0.03331623274626273,0.05574884833405499,0.01437191804355485,0.052995130478653694,0.024783976119807552,0.008078729783272792,0.04828250518647821,
0.3732370377841123,0.0330143017437855,0.05534555452769546,0.014337157317537399,0.05310998743923337,0.02471574897358637,0.008086633205915216,0.04830583094876605,
0.37403115914109986,0.03271872430582535,0.054944140033995496,0.01430309732200153,0.053230324102769934,0.02465029245581631,0.008095274887151234,0.048331453166667405,
0.3748252804980865,0.032429551171518176,0.05454467280764929,0.014269752812990097,0.053356140162899565,0.024587650776798704,0.00810465422914479,0.04835944263370922,
0.37561940185507403,0.032146829152064516,0.05414721985849479,0.01423713830999255,0.053487432204433236,0.02452786676994865,0.00811477024575425,0.0483898688194983,
0.37641352321206156,0.03187060113844291,0.05375184724012315,0.014205268089203804,0.05362419370437214,0.024470981871480106,0.008125621564263955,0.04842279983107946,
0.3772076445690491,0.031600906111488386,0.0533586200390184,0.014174156176854923,0.0537664150348075,0.02441703610099357,0.008137206427323261,0.04845830237503996,
0.3780017659260366,0.031337779154305245,0.05296760236421132,0.014143816342619773,0.05391408346769576,0.02436606804297452,0.008149522695090599,0.04849644172037959,
0.37879588728302416,0.0310812514669818,0.05257885733743169,0.014114262093101806,0.05406718318149837,0.0243181148292099,0.008162567847579797,0.04853728166216519,
0.3795900086400117,0.030831350383574024,0.05219244708374329,0.014085506665405161,0.05422569526967456,0.02427321212212924,0.008176338987205933,0.048580884485987644,
0.3803841299969992,0.030588099391323717,0.051808432722646444,0.014057563020794283,0.05438959775101407,0.024231394099076146,0.008190832841527855,0.04862731093323951,
0.38117825135398675,0.030351518152076044,0.05142687435963331,0.014030443838446404,0.05455886558179608,0.02419269343751515,0.008206045766184354,0.04867662016723057,
0.3819723727109743,0.030121622525860165,0.051047831078181206,0.01400416150930098,0.054733470669759234,0.02415714130117813,0.008221973748020965,0.04872886974015819,
0.3827664940679618,0.029898424596595943,0.05067136093217016,0.013978728130010457,0.054913381889866775,0.02412476732715376,0.008238612408404155,0.04878411556094908,
0.38356061542494935,0.0296819326998887,0.05029752093871117,0.013954155496996542,0.05509856510184989,0.02409559961392273,0.008255957006719708,0.04884241186398804,
0.3843547367819369,0.029472151452873446,0.0499263670713724,0.013930455100616244,0.05528898316951114,0.024069664710340628,0.008274002444051909,0.048903811178749375,
0.3851488581389244,0.02926908178606868,0.049557954253790816,0.013907638119441916,0.05548459598176927,0.024046987605569777,0.008292743267040121,0.04896836430034556,
0.38594297949591194,0.029072720977199734,0.04919233635365772,0.013885715414659551,0.05568536047542547,0.024027591719960294,0.008312173671909258,0.0490361202610076,
0.3867371008528986,0.02888306268695032,0.0488295661770671,0.013864697524589456,0.05589123065963045,0.024011498896880215,0.008332287508670558,0.04910712630251069,
0.3875312222098861,0.02870009699660064,0.048469695463216514,0.01384459465933351,0.05610215764203073,0.023998729395493506,0.008353078285489014,0.04918142784955819,
0.38832534356687365,0.02852381044750946,0.048112774879450725,0.01382541669555315,0.05631808965657214,0.023989301884484147,0.00837453917321373,0.04925906848413666,
0.3891194649238612,0.028354186082397124,0.04775885401663917,0.013807173171382112,0.05653897209293744,0.02398323343672402,0.008396663010067437,0.04934008992085389,
0.3899135862808487,0.028191203488385733,0.047407981384878714,0.013789873281478003,0.056764747527594056,0.023980539524881266,0.0084194423064913,0.04942453198327124,
0.39070770763783624,0.028034838841752268,0.04706020440951408,0.0137735258722167,0.05699535575642775,0.02398123401796533,0.008442869250141188,0.049512432581241286,
0.3915018289948238,0.027885064954349812,0.046715569427468934,0.013758139437033402,0.05723073382893696,0.023985329178804138,0.008466935711031362,0.04960382768926075,
0.3922959503518113,0.027741851321651415,0.04637412168388094,0.013743722111914228,0.057470816083962,0.02399283566244827,0.008491633246821662,0.049698751325848584,
0.39309007170879884,0.02760516417237109,0.04603590532903497,0.013730281671042113,0.05771553418692269,0.024003762515496335,0.008516953108244081,0.04979723553395825,
0.39388419306578637,0.02747496651961533,0.04570096341558888,0.013717825522600587,0.057964817168537096,0.02401811717633509,0.008542886244664642,0.04989931036243236,
0.3946783144227739,0.027351218213518786,0.04536933789608711,0.01370636070473908,0.058218591464993794,0.024035905476287044,0.008569423309776456,0.05000500384850762,
0.39547243577976143,0.027233875995316917,0.04504106962075749,0.01369589388170314,0.05847678095954912,0.024057131641657972,0.008596554667419772,0.050114342001377224,
0.39626655713674896,0.02712289355280825,0.04471619833558719,0.013686431340132916,0.05873930702552017,0.02408179829667584,0.008624270397524843,0.050227348786816985,
0.3970606784937365,0.027018221577158493,0.04439476268067435,0.01367797898553313,0.05900608857064397,0.024109906467312234,0.008652560302173366,0.050344046112881215,
0.39785479985072403,0.02691980782099851,0.04407680018885207,0.013670542338917542,0.059277042082772374,0.024141455585976763,0.008681413911774268,0.05046445381667332,
0.39864892120771067,0.02682759715776781,0.0437623472845818,0.013664126533630932,0.05955208167687153,0.02417644349707418,0.008710820491349615,0.05058858965219548,
0.3994430425646982,0.026741531642255154,0.04345143928311361,0.013658736312351327,0.05983111914329454,0.024214866463413576,0.008740769046926321,0.050716469279281085,
0.40023716392168573,0.026661550572287425,0.04314411038991102,0.013654376024275156,0.06011406399729491,0.024256719173458258,0.00877124833202946,0.05084810625361309,
0.40103128527867327,0.026587590551517926,0.04284039370033851,0.013651049622487834,0.06040082352974816,0.024301994749404483,0.00880224685427282,0.05098351201783054,
0.4018254066356608,0.026519585553264967,0.04254032119960991,0.013648760661522066,0.06069130285904789,0.02435068475607657,0.0088337528820425,0.05112269589372475,
0.40261952799264833,0.02645746698535167,0.04224392376299618,0.01364751229510606,0.06098540498414268,0.024402779210625506,0.008865754451269229,0.05126566507552635,
0.40341364934963586,0.026401163755897652,0.04195123115629128,0.013647307274103668,0.061283030838679066,0.0244582665930176,0.008898239372285179,0.05141242462428318,
0.4042077707066234,0.026350602340013324,0.041662272036535025,0.013648147944648248,0.06158407934621588,0.02451713385729924,0.008931195236760989,0.05156297746332868,
0.4050018920636109,0.026305706847347343,0.04137707395299207,0.013650036246471925,0.061888447476474276,0.02457936644362328,0.008964609424718707,0.05171732437483995,
0.40579601342059846,0.026266399090438,0.04109566334838614,0.0136529737114317,0.06219603030258757,0.02464494829102228,0.008998469111616473,0.0518754639974834,
0.406590134777586,0.026232598653819026,0.040818065560388805,0.013656961462233714,0.06250672105931457,0.02471386185091317,0.009032761275500683,0.05203739282514612,
0.4073842561345735,0.026204222963830587,0.04054430482336234,0.013662000211356806,0.06282041120217927,0.024786088101317744,0.009067472704221455,0.05220310520674996,
0.40817837749156105,0.026181187359086318,0.04027440427035609,0.013668090260176296,0.06313699046749957,0.024861606561782816,0.009102590002707198,0.05237259334714506,
0.4089724988485486,0.02616340516154723,0.04000838593535617,0.013675231498288655,0.06345634693326781,0.02494039530898351,0.009138099600294129,0.052545847309078984,
0.4097666202055361,0.02615078774815357,0.039746270755787974,0.013683423403037688,0.06377836708084468,0.025022430992992818,0.009173987758106633,0.05272285501623711,
0.41056074156252276,0.026143244622965918,0.03948807857527147,0.013692665039242689,0.06410293585742867,0.02510768885420018,0.009210240576484367,0.052903602257349254,
0.4113548629195103,0.02614068348976697,0.03923382814662888,0.013702955059128661,0.06442993673926252,0.025196142740861793,0.009246844002452091,0.05308807269135784,
0.4121489842764978,0.026143010325075634,0.0389835371351447,0.013714291702458728,0.06475925179553793,0.025287765127264883,0.009283783837228228,0.053276247853641295,
0.41294310563348535,0.026150129451525332,0.038737222122077815,0.01372667279686854,0.06509076175296032,0.025382527132487825,0.009321045743768195,0.05346810716328713,
0.4137372269904729,0.02616194361155887,0.03849489860842554,0.013740095758402395,0.06542434606093435,0.025480398539738124,0.009358615254338613,0.053663627931408,
0.4145313483474604,0.026178354041392463,0.03825658101893958,0.013754557592250591,0.06575988295733201,0.025581347816249718,0.009396477778118601,0.05386278537049402,
0.41532546970444795,0.026199260545201965,0.03802228270639343,0.013770054893687348,0.06609724953480392,0.02568534213372121,0.00943461860882436,0.054065552604794495,
0.4161195910614355,0.02622456156948449,0.0377920159561013,0.013786583849208497,0.06643632180759546,0.02579234738927641,0.009473022932353338,0.05427190068172177,
0.416913712418423,0.02625415427754929,0.037565791990687936,0.013804140237867963,0.06677697477882906,0.025902328226928343,0.00951167583444441,0.054481798584269846,
0.41770783377541054,0.026287934624091926,0.03734362097510895,0.013822719432811945,0.06711908250821427,0.0260152480595281,0.009550562308350424,0.054695213244439905,
0.4185019551323981,0.026325797429806532,0.03712551202192128,0.013842316403009501,0.06746251818014698,0.026131069091179696,0.009589667262519658,0.0549121095576648,
0.4192960764893856,0.026367636455991134,0.03691147319680287,0.01386292571517814,0.06780715417216009,0.026249752340102156,0.009628975528282797,0.0551324503982247,
0.42009019784637314,0.0264133444791016,0.036701511524321245,0.013884541535902883,0.06815286212368767,0.026371257661920056,0.009668471867542047,0.055356196635645505,
0.42088431920336067,0.026462813365210208,0.0364956329939495,0.013907157633947039,0.06849951300510508,0.02649554377336384,0.009708140980459157,0.055583307152071944,
0.4216784405603473,0.02651593414432529,0.03629384256632901,0.013930767382752916,0.06884697718700773,0.026622568276361152,0.009747967513139156,0.05581373886060676,
0.42247256191733484,0.026572597084529106,0.03609614417977745,0.013955363763130517,0.06919512450969134,0.02675228768250076,0.009787936065306682,0.05604744672460745,
0.4232666832743224,0.026632691765891503,0.035902540757040746,0.013980939366132176,0.06954382435279709,0.026884657437850585,0.009828031197971935,0.056284383777932157,
0.4240608046313099,0.0266961071541175,0.03571303421228726,0.014007486396110866,0.06989294570508578,0.02701963194811142,0.00986823744108329,0.056524501146126005,
0.42485492598829744,0.026762731673887413,0.03552762545834267,0.014034996673959946,0.0702423572343047,0.027157164604088232,0.009908539301163687,0.056767748068539126,
0.42564904734528497,0.02683245328184873,0.0353463144141634,0.014063461640532009,0.07059192735711223,0.02729720780746095,0.009948921268928103,0.05701407192136773,
0.4264431687022725,0.026905159539219535,0.03516910001254663,0.014092872360234269,0.0709415243090248,0.027439712996836955,0.009989367826879376,0.05726341824160945,
0.42723729005926003,0.026980737683963904,0.03499598020807453,0.014123219524797927,0.07129101621435227,0.027584630674067454,0.010029863456879888,0.05751573075192444,
0.42803141141624756,0.02705907470250019,0.034826951985290115,0.01415449345721886,0.07164027115608763,0.027731910430810428,0.010070392647696533,0.05777095138639336,
0.4288255327732351,0.027140057400903795,0.03466201136710201,0.014186684115866923,0.07198915724571785,0.0278815009753229,0.01011093990251664,0.05802902031716396,
0.42961965413022263,0.02722357247556662,0.034501153423415344,0.014219781098760927,0.0723375426929229,0.028033350159465523,0.010151489746432566,0.05828987598197748,
0.43041377548721016,0.027309506583275973,0.03434437227998564,0.014253773648006418,0.07268529587513116,0.028187405005902808,0.010192026733892698,0.05855345511256634,
0.4312078968441977,0.027397746410676403,0.034191661127492216,0.014288650654393253,0.07303228540689884,0.02834361173548252,0.010232535456116788,0.05881969276391474,
0.4320020182011852,0.027488178743078642,0.034043012230828076,0.014324400662149883,0.07337838020908263,0.028501915794778142,0.010273000548473531,0.05908852234437354,
0.43279613955817275,0.027580690532580464,0.033898416938602294,0.014361011873851207,0.07372344957777448,0.028662261883778527,0.010313406697818463,0.0593598756466213,
0.4335902609151594,0.027675168965464864,0.03375786569285135,0.014398472155476785,0.07406736325296792,0.02882459398370908,0.010353738649790214,0.05963368287946248,
0.43438438227214693,0.027771501528841825,0.0336213480389555,0.014436769041616074,0.07440999148692667,0.02898885538496911,0.010393981216063377,0.05990987270045466,
0.43517850362913446,0.02786957607650044,0.03348885263575593,0.014475889740817323,0.07475120511222509,0.029154988715170447,0.010434119281556164,0.06018837224935569,
0.435972624986122,0.02796928089393916,0.03336036726586856,0.014515821141076758,0.07509087560943184,0.029322935967262445,0.01047413781159114,0.06046910718238234,
0.4367667463431095,0.02807050476254224,0.033235878846190205,0.014556549815464491,0.0754288751744071,0.02949263852772897,0.01051402185900741,0.060752001707271144,
0.43756086770009706,0.028173137022871775,0.03311537343859262,0.014598062027883664,0.07576507678518535,0.02966403720484308,0.0105537565712226,0.06103697861913274,
0.4383549890570846,0.028277067637044843,0.03299883626079991,0.014640343738959217,0.07609935426841438,0.029837072256965514,0.010593327197243133,0.061323959337090166,
0.4391491104140721,0.028382187250166634,0.0328862516974446,0.014683380612052667,0.07643158236532319,0.03001168342087331,0.010632719094621214,0.06161286394169189,
0.43994323177105965,0.02848838725079065,0.03277760331129759,0.014727158019399219,0.07676163679718997,0.03018780994010513,0.010671917736357095,0.061903611213089696,
0.4407373531280472,0.028595559830378283,0.03267287385466726,0.014771661048363485,0.07708939433028339,0.030365390593310358,0.010710908717745134,0.06219611866997172,
0.4415314744850347,0.028703598041730657,0.03257204528096288,0.014816874507810133,0.07741473284024866,0.03054436372258892,0.010749677763162277,0.06249030260924046,
0.44232559584202225,0.028812395856366482,0.03247509875641726,0.014862782934585676,0.07773753137591176,0.030724667261809495,0.010788210732797562,0.06278607814642506,
0.4431197171990098,0.028921848220820265,0.0323820146719637,0.014909370600107637,0.07805767022247359,0.030906238764893817,0.010826493629321218,0.06308335925681716,
0.4439138385559973,0.029031851111836322,0.03229277265526235,0.014956621517057362,0.07837503096406756,0.031089015434055123,0.0108645126044921,0.06338205881731887,
0.44470795991298484,0.029142301590434655,0.03220735158287068,0.015004519446172747,0.07868949654565317,0.031272934147978985,0.010902253965701962,0.06368208864899139,
0.4455020812699715,0.029253097854825535,0.03212572959255313,0.015053047903137077,0.07900095133421864,0.03145793148993518,0.010939704182455334,0.06398335956029202,
0.446296202626959,0.02936413929215067,0.03204788409572464,0.015102190165560326,0.0793092811792656,0.031643943775809376,0.01097684989278361,0.06428578139098681,
0.44709032398394655,0.02947532652902938,0.0319737917900228,0.015151929280049166,0.07961437347254917,0.03183090708204387,0.011013677909591906,0.06458926305672584,
0.4478844453409341,0.02958656148088913,0.03190342867200351,0.015202248069362073,0.07991611720704642,0.032018757273476625,0.011050175226937341,0.06489371259426724,
0.4486785666979216,0.029697747400060877,0.03183677004995468,0.015253129139645867,0.08021440303512649,0.032207430031068365,0.011086329026237296,0.06519903720733593,
0.44947268805490914,0.029808788922619907,0.03177379055682288,0.015304554887750168,0.08050912332589562,0.03239686087950762,0.011122126682406214,0.06550514331310198,
0.4502668094118967,0.029919592113954396,0.03171446416324756,0.015356507508616295,0.08080017222169071,0.03258698521468372,0.01115755576991947,0.06581193658926338,
0.4510609307688842,0.03003006451304424,0.03165876419069743,0.01540896900273717,0.08108744569369436,0.032777738331018186,0.011192604068802734,0.06611932202171684,
0.45185505212587174,0.030140115175433916,0.03160666332470384,0.015461921183684849,0.08137084159664537,0.032969055448645354,0.011227259570545342,0.0664272039527999,
0.45264917348285927,0.03024965471488372,0.03155813362818566,0.015515345685702462,0.08165025972261843,0.03316087174043283,0.011261510483936027,0.06673548613008717,
0.4534432948398468,0.030358595343684916,0.03151314655486054,0.015569223971357477,0.08192560185384591,0.03335312235883312,0.011295345240819364,0.06704407175572222,
0.45423741619683433,0.030466850911624967,0.03147167296273727,0.015623537339253233,0.08219677181455638,0.033545742462557544,0.011328752501771257,0.06735286353626677,
0.45503153755382186,0.030574336943590037,0.03143368312768386,0.01567826693179581,0.08246367552180334,0.03373866724306425,0.011361721161691724,0.0676617637330477,
0.4558256589108094,0.030680970675792944,0.03139914675706613,0.015733393743013493,0.08272622103525848,0.03393183195085206,0.01139424035531316,0.06797067421298181,
0.4566197802677969,0.030786671090615267,0.03136803300345186,0.015788898626426198,0.08298431860594395,0.034125171921552226,0.011426299462622282,0.06827949649985716,
0.45741390162478357,0.030891358950053523,0.03134031047837517,0.015844762302962365,0.08323788072387796,0.03431862260181033,0.01145788811419381,0.06858813182605022,
0.4582080229817711,0.030994956827760132,0.031315947266156136,0.01590096536892097,0.0834868221646087,0.03451211957495098,0.011488996196433971,0.06889648118465598,
0.45900214433875863,0.03109738913967075,0.031294910937770634,0.015957488303976506,0.08373106003461188,0.03470559858641792,0.01151961385673178,0.06920444538200846,
0.45979626569574616,0.03119858217321048,0.03127716856476567,0.016014311479224896,0.08397051381552774,0.034898995568982655,0.01154973150851613,0.06951192509056815,
0.4605903870527337,0.03129846411507227,0.03126268673321522,0.0160714151652684,0.0842051054072128,0.035092246667714704,0.011579339836216555,0.06981882090215209,
0.46138450840972123,0.03139696507756191,0.03125143155771177,0.01612877954033786,0.08443475916958341,0.035285288264707074,0.011608429800125506,0.07012503338148153,
0.46217862976670876,0.03149401712350466,0.031243368695388983,0.016186384698450573,0.0846594019632278,0.03547805700355057,0.011636992641159931,0.07043046312002173,
0.4629727511236963,0.031589554289709526,0.031238463359970714,0.016244210657602322,0.08487896318876398,0.035670489813550976,0.011665019885519946,0.07073501079008765,
0.4637668724806838,0.03168351260898821,0.03123668033584216,0.01630223736799224,0.08509337482492192,0.03586252393368315,0.01169250334924224,0.0710385771991885,
0.46456099383767135,0.03177583013072637,0.031237983992138615,0.0163604447202791,0.08530257146532844,0.03605409693627667,0.011719435142645961,0.07134106334458394,
0.4653551151946589,0.03186644694000606,0.03124233829684746,0.016418812553867974,0.0855064903539737,0.03624514675042744,0.011745807674668608,0.07164237046802344,
0.4661492365516464,0.031955305175278795,0.03124970683091936,0.01647732066522612,0.08570507141933943,0.036435611685130424,0.011771613657089553,0.07194240011064036,
0.46694335790863395,0.03204234904458979,0.031260052802384516,0.016535948816227018,0.08589825730716939,0.036625430452128314,0.011796846108638726,0.07224105416797146,
0.4677374792656215,0.03212752484035461,0.03127333906046993,0.0165946767425216,0.08608599341186304,0.03681454218847167,0.011821498358987903,0.07253823494507125,
0.468531600622609,0.032210780952690504,0.03128952810971372,0.016653484161935742,0.08626822790647408,0.03700288647878588,0.011845564052622118,0.07283384521169162,
0.46932572197959566,0.03229206788130545,0.03130858212407284,0.016712350782893202,0.08644491177129598,0.03719040337724059,0.011869037152588567,0.07312778825749464,
0.4701198433365832,0.032371338245948886,0.03133046296102026,0.016771256312863053,0.08661599882101785,0.037377033429217506,0.011891911944120424,0.07341996794726761,
0.4709139646935707,0.03244854679542897,0.03135513217562805,0.0168301804668309,0.08678144573043382,0.037562717692672526,0.011914183038132905,0.07371028877610791,
0.47170808605055825,0.032523650415202054,0.03138255103463267,0.016889102975793015,0.0869412120586906,0.03774739775918842,0.011935845374588961,0.07399865592454485,
0.4725022074075458,0.032596608133541094,0.03141268053047872,0.016948003595272675,0.08709526027205762,0.03793101577471404,0.011956894225731943,0.07428497531356533,
0.4732963287645333,0.032667381126290446,0.031445481395337836,0.017006862113857935,0.08724355576520584,0.03811351445998671,0.011977325199182544,0.0745691536595097,
0.47409045012152085,0.03273593272021554,0.03148091411509887,0.017065658361760085,0.08738606688098095,0.03829483713063401,0.011997134240897402,0.07485109852880355,
0.4748845714785084,0.032802228394956376,0.031518938943326136,0.017124372219392066,0.08752276492865788,0.03847492771695165,0.012016317637986582,0.07513071839249127,
0.4756786928354959,0.032866235783595286,0.0315595159151819,0.017182983625966014,0.08765362420066439,0.03865373078335382,0.012034872021387272,0.075407922680536,
0.47647281419248344,0.03292792467184978,0.031602604861309634,0.017241472588109246,0.087778621987762,0.038831191547492865,0.01205279436839106,0.07568262183585112,
0.47726693554947097,0.03298726699590229,0.031648165421674396,0.017299819188497774,0.08789773859267302,0.03900725589904519,0.012070082005022048,0.07595472736802722,
0.4780610569064585,0.03304423683887953,0.03169615705935668,0.017358003594506632,0.0880109573421434,0.03918187041815996,0.012086732608263186,0.07622415190671943,
0.47885517826344604,0.03309881042599486,0.031746539074296316,0.01741600606687602,0.08811826459743168,0.039354982393567634,0.012102744208128081,0.07649080925465782,
0.47964929962043357,0.03315096611836802,0.031799270616982456,0.017473806968392482,0.08821964976321517,0.039526539840345196,0.012118115189575684,0.07675461444024517,
0.4804434209774202,0.03320068440553725,0.03185431070208609,0.017531386772583955,0.08831510529490504,0.03969649151733485,0.012132844294265166,0.07701548376970485,
0.48123754233440774,0.03324794789667979,0.03191161822203115,0.017588726072427764,0.08840462670436207,0.039864786944213235,0.012146930622148363,0.07727333487874184,
0.4820316636913953,0.03329274131055749,0.031971151960500516,0.017645805589070387,0.0884882125640064,0.04003137641820781,0.012160373632897157,0.07752808678367959,
0.4828257850483828,0.03333505146420493,0.03203287060587282,0.01770260618055781,0.0885658645093141,0.040196211030457396,0.012173173147163265,0.07777965993203506,
0.48361990640537034,0.033374867260378444,0.03209673276458626,0.01775910885057522,0.08863758723969523,0.04035924268201352,0.012185329347667806,0.07802797625249394,
0.48441402776235787,0.03341217967378495,0.032162696974425246,0.01781529475719465,0.08870338851774694,0.040520424099479306,0.012196842780118159,0.07827295920424852,
0.4852081491193454,0.03344698173611033,0.032230721717725626,0.01787114522162914,0.08876327916687778,0.040679708850282596,0.012207714353949631,0.07851453382565961,
0.48600227047633293,0.03347926851986792,0.03230076543449442,0.01792664173699185,0.08881727306729797,0.040837051357579666,0.012217945342889532,0.07875262678220422,
0.48679639183332046,0.03350903712108798,0.032372786535439554,0.017981765977058462,0.08886538715037257,0.04099240691478614,0.012227537385341266,0.07898716641367108,
0.487590513190308,0.03353628664087017,0.03244674341490514,0.018036499805031043,0.08890764139133389,0.04114573169973128,0.012236492484586173,0.07921808278056504,
0.4883846345472955,0.03356101816582129,0.03252259446370781,0.01809082528230157,0.08894405880035128,0.04129698278843196,0.012244813008800854,0.0794453077096823,
0.48917875590428306,0.03358323474740144,0.032600298081869324,0.018144724677212995,0.08897466541195555,0.041446118168482315,0.012252501690887943,0.07966877483881799,
0.4899728772612706,0.03360294138020195,0.032679812691240755,0.0181981804738157,0.0889994902728178,0.041593096752055234,0.012259561628118218,0.07988841966056762,
0.4907669986182581,0.03362014497917949,0.032761096748013474,0.01825117538061706,0.08901856542788149,0.04173787838851187,0.012265996281582136,0.08010417956518485,
0.49156111997524565,0.03363485435587101,0.03284410875511174,0.01830369233932167,0.08903192590484832,0.04188042387661474,0.012271809475449097,0.08031599388245772,
0.4923552413322323,0.03364708019361451,0.032928807274462096,0.018355714533559674,0.0890396096970189,0.042020694976340624,0.012277005396032638,0.08052380392256557,
0.49314936268921983,0.03365683502180144,0.03301515093913407,0.01840722539760047,0.08904165774449002,0.04215865442028882,0.012281588590660133,0.08072755301587996,
0.49394348404620736,0.03366413318918662,0.03310309846534718,0.018458208625048957,0.08903811391371141,0.042294265924680954,0.012285563966345578,0.08092718655167305,
0.4947376054031949,0.03366899083628223,0.033192608664338936,0.01850864817752138,0.08902902497540571,0.04242749419994801,0.012288936788264253,0.08112265201569777,
0.4955317267601824,0.03367142586686267,0.03328364045408833,0.018558528293297374,0.08901444058085645,0.042558304960900496,0.01229171267802812,0.08131389902660399,
0.49632584811716995,0.03367145791860744,0.03337615287088942,0.01860783349594516,0.08899441323656926,0.04268666493647796,0.01229389761176112,0.08150087937115691,
0.4971199694741575,0.033669108332909405,0.03347010508076928,0.018656548602916274,0.08896899827731362,0.04281254187907382,0.012295497917973542,0.08168354703822361,
0.497914090831145,0.033664400123876496,0.03356545639074495,0.01870465873410625,0.08893825383755245,0.042935904573431806,0.012296520275234885,0.0818618582514956,
0.49870821218813255,0.03365735794655474,0.03366216625991386,0.018752149320377547,0.08890224082126841,0.043056722845110286,0.012296971709644812,0.08203577150091515,
0.4995023335451201,0.033648008064401116,0.03376019431037195,0.018799006112040655,0.08886102287019738,0.04317496756851138,0.012296859592101906,0.0822052475727758,
0.5002964549021076,0.033636378316034825,0.03385950033795402,0.018845215187289342,0.08881466633047931,0.043290610674471326,0.01229619163537016,0.08237024957846674,
0.5010905762590951,0.033622498081295873,0.033960044322790775,0.01889076296058583,0.08876324021773935,0.04340362515740913,0.012294975890943298,0.08253074298183355,
0.5018846976160827,0.03360639824664009,0.03406178643967704,0.018935636190991464,0.08870681618061277,0.043513985082030644,0.012293220745707172,0.08268669562512827,
0.5026788189730702,0.03358811116989995,0.034164687068245686,0.018979821990438215,0.08864546846272804,0.04362166558958591,0.01229093491840077,0.0828380777535234,
0.5034729403300577,0.033567670644440474,0.034268706802941876,0.019023307831936447,0.08857927386316389,0.04372664290367708,0.012288127455876468,0.08298486203816573,
0.5042670616870444,0.03354511186274009,0.03437380646279243,0.0190660815577139,0.08850831169539801,0.04382889433561514,0.012284807729160374,0.08312702359774775,
0.5050611830440319,0.03352047137942619,0.03447994710096504,0.01910813138728102,0.08843266374476519,0.04392839828932352,0.012280985429313857,0.08326454001857574,
0.5058553044010194,0.03349378707379523,0.034587090014112275,0.01914944592541739,0.08835241422444526,0.04402513426578737,0.012276670563097485,0.08339739137311526,
0.506649425758007,0.03346509811184731,0.03469519675149547,0.01919001417007405,0.08826764973000131,0.04411908286704741,0.012271873448438945,0.08352556023699674,
0.5074435471149945,0.03343444490786516,0.03480422912388342,0.01922982552018624,0.08817845919249084,0.04421022579973758,0.012266604709706468,0.08364903170446505,
0.508237668471982,0.03340186908556767,0.034914149212221385,0.019268869783391,0.08808493383017339,0.04429854587816621,0.012260875272789686,0.08376779340226027,
0.5090317898289696,0.03336741343886785,0.035024919376065465,0.019307137183644036,0.08798716709883965,0.0443840270269405,0.012254696359989978,0.0838818355019167,
0.5098259111859571,0.03333112189226523,0.035136502261778155,0.019344618368730103,0.0878852546407881,0.04446665428313488,0.012248079484722467,0.0839911507304715,
0.5106200325429446,0.03329303946090257,0.03524886081048059,0.019381304417660988,0.08777929423247681,0.04454641379800392,0.0122410364460321,0.084095734379574,
0.5114141538999322,0.033253212210316685,0.03536195826575733,0.019417186847955063,0.08766938573087897,0.04462329283824073,0.01223357932292636,0.08419558431299061,
0.5122082752569197,0.03321168721591309,0.03547575818110978,0.01945225762279236,0.08755563101857236,0.04469727978678226,0.01222572046852739,0.08429070097250103,
0.5130023966139072,0.0331685125221939,0.03559022442715429,0.019486509158038973,0.08743813394759369,0.044768364143163326,0.012217472504046359,0.08438108738218394,
0.5137965179708948,0.03312373710176852,0.035705321198561436,0.019519934329134476,0.08731700028209065,0.044836536523421296,0.012208848312583283,0.08446674915109202,
0.5145906393278823,0.033077410814176054,0.03582101302073317,0.01955252647783597,0.08719233763980481,0.04490178865955372,0.012199861032755383,0.0845476944743186,
0.5153847606848698,0.033029584364548746,0.035937264756214574,0.019584279418812394,0.08706425543242084,0.044964113398531735,0.012190524052157455,0.08462393413245965,
0.5161788820418565,0.03298030926214473,0.03605404161083752,0.019615187446082472,0.08693286480481809,0.04502350470087187,0.012180851000657808,0.08469548148947689,
0.516973003398844,0.032929637778778865,0.03617130913959354,0.01964524533928971,0.08679827857326188,0.04507995763876968,0.012170855743533441,0.08476235248896953,
0.5177671247558315,0.03287762290717959,0.036289033252233545,0.019674448369807848,0.08666061116257337,0.04513346839379846,0.012160552374448349,0.08482456564886427,
0.5185612461128191,0.0328243183192996,0.0364071802185925,0.01970279230667012,0.08651997854231713,0.045184034254177274,0.012149955208278973,0.08488214205453512,
0.5193553674698066,0.03276977832460787,0.03652571667363737,0.019730273422315578,0.08637649816204782,0.04523165361161188,0.012139078773790883,0.08493510535036544,
0.5201494888267941,0.03271405782839012,0.036644609622237145,0.01975688849814578,0.08623028888565742,0.045276325957713,0.012127937806171052,0.08498348172976739,
0.5209436101837817,0.032657212290084406,0.03676382644365391,0.01978263482988504,0.08608147092486622,0.0453180518799968,0.01211654723942002,0.08502729992367405,
0.5217377315407692,0.032599297681678206,0.036883334895754384,0.019807510232737628,0.08593016577190103,0.0453568330574722,0.012104922198608566,0.08506659118752213,
0.5225318528977567,0.03254037044619282,0.03700310311894185,0.019831513046335115,0.0857764961314057,0.045392672255820124,0.012093077992003437,0.08510138928674343,
0.5233259742547443,0.032480487456280606,0.03712309963980881,0.019854642139467204,0.08562058585162936,0.04542557332217031,0.012081030103066914,0.0851317304807855,
0.5241200956117318,0.032419705972960094,0.03724329337451101,0.01987689691458936,0.08546255985493875,0.0454555411794812,0.012068794182335033,0.08515765350568175,
0.5249142169687193,0.03235808360451356,0.03736365363186412,0.01989827731210069,0.0853025440677011,0.04548258182052916,0.012056386039179353,0.08517919955519364,
0.5257083383257068,0.032295678265571205,0.03748415011616445,0.01991878381438532,0.08514066534958585,0.04550670230151301,0.012043821633457292,0.08519641226054783,
0.5265024596826944,0.03223254813640568,0.03760475292973587,0.019938417449610918,0.08497705142233256,0.04552791073528039,0.012031117067056096,0.08520933766879202,
0.5272965810396819,0.03216875162245995,0.03772543257520532,0.0199571797952778,0.08481183079803432,0.04554621628418305,0.012018288575335608,0.08521802421979474,
0.5280907023966686,0.032104347314131386,0.0378461599575097,0.01997507298151216,0.08464513270698511,0.045561629152567874,0.01200535251847498,0.08522252272191387,
0.5288848237536561,0.03203939394683408,0.03796690638563744,0.019992099694097015,0.08447708702514059,0.04557416057891081,0.011992325372728648,0.08522288632636026,
0.5296789451106436,0.031973950361361254,0.038087643574108376,0.02000826317723468,0.08430782420124168,0.04558382282760161,0.011979223721596821,0.0852191705002832,
0.5304730664676311,0.031908075464568704,0.038208343644196154,0.02002356723603444,0.08413747518365071,0.04559062918038661,0.011966064246915827,0.08521143299860498,
0.5312671878246187,0.03184182819040015,0.038328979124897564,0.02003801623871947,0.08396617134694977,0.04559459392747803,0.01195286371987366,0.08519973383463222,
0.5320613091816062,0.03177526746127435,0.03844952295365376,0.020051615118546876,0.0837940444183512,0.04559573235833754,0.011939638991956106,0.08518413524947217,
0.5328554305385937,0.03170845214985363,0.03856994847682871,0.020064369375435057,0.08362122640396964,0.045594060752142694,0.011926406985828832,0.0851647016802818,
0.5336495518955813,0.03164144104121292,0.03869022944995062,0.02007628507729255,0.08344784951500504,0.045589596367944525,0.011913184686160785,0.08514149972737907,
0.5344436732525688,0.03157429279542764,0.03881034003772245,0.020087368861042867,0.08327404609388617,0.04558235743452509,0.01189998913039427,0.08511459812024444,
0.5352377946095563,0.03150706591059806,0.03893025481380782,0.020097627933339763,0.08309994854042319,0.04557236313996339,0.011886837399467047,0.0850840676824424,
0.5360319159665439,0.03143981868632793,0.03904994876039907,0.020107070070967833,0.08292568923801778,0.045559633620918256,0.011873746608491826,0.08504998129549116,
0.5368260373235314,0.03137260918767354,0.039169397267574485,0.020115703620923304,0.08275140047997895,0.045544189951637046,0.011860733897398446,0.08501241386170981,
0.5376201586805189,0.03130549520957964,0.039288576132452,0.020123537500170163,0.08257721439599157,0.04552605413269856,0.011847816421543998,0.08497144226607142,
0.5384142800375065,0.031238534241817755,0.03940746155814684,0.020130581195067027,0.08240326287878474,0.045505249079498926,0.011835011342296151,0.0849271453370909,
0.5392084013944931,0.031171783434441498,0.03952603015254087,0.020136844760460335,0.082229677511046,0.04548179861048919,0.01182233581759486,0.08487960380677603,
0.5400025227514806,0.03110529956377354,0.03964425892687139,0.020142338818439826,0.0820565894926269,0.04545572743517292,0.01180980699249769,0.08482890026966969,
0.5407966441084682,0.031039138998937826,0.03976212529414746,0.020147074556752343,0.08188412956808425,0.04542706114187221,0.0117974419897138,0.0847751191410112,
0.5415907654654557,0.030973357668949954,0.03987960706740199,0.020151063726870477,0.08171242795460126,0.0453958261852704,0.011785257900131709,0.08471834661404469,
0.5423848868224432,0.03090801103037827,0.03999668245778757,0.020154318641712618,0.08154161427033177,0.04536204987373962,0.01177327177334581,0.08465867061650137,
0.5431790081794308,0.030843154035587465,0.04011333007252461,0.020156852173011535,0.08137181746320932,0.045325760356461416,0.011761500608186625,0.08459618076628261,
0.5439731295364183,0.030778841101575787,0.04022952891270993,0.02015867774832866,0.08120316574026326,0.045286986610347996,0.011749961343259703,0.08453096832637014,
0.5447672508934058,0.030715126079416427,0.04034525837099449,0.020159809347711756,0.08103578649748136,0.04524575842677198,0.011738670847497943,0.0844631261589896,
0.5455613722503934,0.0306520622243129,0.040460498229138116,0.02016026149999386,0.08086980625025926,0.04520210639811234,0.011727645910732191,0.08439274867905273,
0.5463554936073809,0.030589702166277717,0.0405752286554502,0.020160049278731787,0.08070535056447524,0.04515606190412382,0.011716903234284749,0.084319931806903,
0.5471496149643684,0.030528097881443023,0.04068943020212391,0.020159188297782737,0.08054254398822823,0.045107657098137015,0.011706459421590503,0.08424477292038933,
0.547943736321356,0.030467300664011168,0.04080308380247268,0.02015769470651813,0.08038150998427557,0.045056924893096144,0.011696330968850217,0.08416737080629155,
0.5487378576783435,0.030407361098852646,0.040916170768076736,0.020155585184673766,0.08022237086320722,0.04500389894744131,0.011686534255720511,0.08408782561112176,
0.549531979035331,0.030348329034758197,0.041028672785847625,0.02015287693683616,0.0800652477173908,0.04494861365084186,0.011677085536044974,0.0840062387913236,
0.5503261003923186,0.030290253558351455,0.04114057191501856,0.02014958768656493,0.07991026035572216,0.04489110410978693,0.011668000928630878,0.08392271306289265,
0.5511202217493052,0.030233182968667553,0.04125185058406812,0.02014573567015169,0.07975752723921439,0.044831406133039924,0.01165929640807577,0.08383735235043954,
0.5519143431062927,0.030177164752402907,0.04136249158758471,0.020141339630016294,0.07960716541745798,0.044769556216962374,0.011650987795648247,0.08375026173571792,
0.5527084644632803,0.030122245559840784,0.04147247808307898,0.02013641880774135,0.0794592904659833,0.044705591530713185,0.011643090750227215,0.08366154740563787,
0.5535025858202678,0.030068471181456422,0.041581793587751124,0.020130992936746642,0.07931401642455625,0.044639549901328804,0.011635620759303788,0.08357131659978628,
0.5542967071772553,0.030015886525205412,0.04169042197521974,0.020125082234605185,0.07917145573643651,0.044571469798690075,0.011628593130050015,0.08347967755747447,
0.5550908285342429,0.029964535594498125,0.04179834747221876,0.020118707395003117,0.0790317191886275,0.0445013903203808,0.011622022980458599,0.0833867394643333,
0.5558849498912304,0.02991446146686282,0.041905554655268774,0.020111889579345822,0.07889491585314583,0.04442935117644322,0.011615925230557666,0.08329261239847599,
0.5566790712482179,0.02986570627329928,0.042012028447328764,0.02010465040801318,0.07876115302933778,0.04435539267403555,0.01161031459370476,0.08319740727624872,
0.5574731926052054,0.029818311178324557,0.04211775411443387,0.02009701195126697,0.07863053618726872,0.04427955570199648,0.0116052055679641,0.08310123579758831,
0.558267313962193,0.029772316360711978,0.04222271726232487,0.020088996719813904,0.07850316891221137,0.04420188171532149,0.011600612427571173,0.08300421039100726,
0.5590614353191805,0.02972776099492404,0.04232690383307459,0.02008062765502813,0.07837915285025773,0.04412241271955569,0.011596549214488773,0.08290644415822558,
0.559855556676168,0.029684683233239414,0.0424303001017162,0.02007192811883707,0.07825858765507854,0.044041191255108275,0.011593029730058588,0.08280805081846965,
0.5606496780331556,0.02964312018857402,0.04253289267287841,0.020062921883275138,0.07814157093585389,0.043958260381493065,0.011590067526752365,0.0827091446524575,
0.5614437993901431,0.029603107917995714,0.042634668477431845,0.020053633119709854,0.0780281982063973,0.04387366366150007,0.01158767590002682,0.08260984044609132,
0.5622379207471306,0.029564681406931585,0.042735614769150894,0.02004408638774528,0.07791856283549575,0.04378744514530309,0.011585867880286376,0.0825102534338765,
0.5630320421041173,0.029527874554066958,0.042835719121395194,0.020034306623807993,0.07781275599848678,0.04369964935450804,0.011584656224957872,0.08241049924208844,
0.5638261634611048,0.02949272015693448,0.0429349694238143,0.020024319129421066,0.07771086663009334,0.04361032126614732,0.011584053410681439,0.08231069383170736,
0.5646202848180923,0.029459249898191542,0.04303335387907908,0.02001414955917175,0.07761298137853691,0.04351950629662517,0.011584071625621651,0.08221095344114235,
0.5654144061750799,0.029427494332583966,0.04313086099964298,0.02000382390837874,0.07751918456094829,0.04342725028561945,0.011584722761903287,0.08211139452876585,
0.5662085275320674,0.029397482874593688,0.043227479604536004,0.019993368500465215,0.07742955812009551,0.04333359947994535,0.011586018408175844,0.08201213371528024,
0.5670026488890549,0.029369243786767897,0.04332319881619417,0.019982809974044034,0.07734418158244702,0.04323860051738651,0.0115879698423112,0.08191328772593881,
0.5677967702460425,0.029342804168726772,0.04341800805732653,0.019972175269721695,0.07726313201758872,0.043142300410499386,0.011590588024238678,0.08181497333264312,
0.56859089160303,0.029318189946846845,0.04351189704782206,0.019961491616627802,0.07718648399901196,0.04304474653039673,0.011593883588921865,0.08171730729594019,
0.5693850129600175,0.02929542586461693,0.04360485580169824,0.019950786518677,0.07711430956628963,0.04294598659051626,0.011597866839481575,0.08162040630694252,
0.5701791343170051,0.02927453547366297,0.04369687462409272,0.01994008774057043,0.07704667818865692,0.04284606863038057,0.011602547740469354,0.08152438692919477,
0.5709732556739926,0.029255541125438586,0.043787944108299705,0.01992942329354406,0.07698365673001212,0.042745040999354646,0.011607935911295905,0.08142936554051147,
0.5717673770309801,0.029238463963577533,0.043878055132852097,0.01991882142087116,0.07692530941535297,0.042642952340406985,0.011614040619818859,0.08133545827481006,
0.5725614983879677,0.02922332391690449,0.04396719885864996,0.019908310583126643,0.0768716977986627,0.042539851573880794,0.011620870776094321,0.08124278096396417,
0.5733556197449552,0.029210139693100347,0.04405536672613631,0.01989791944322073,0.0768228807322598,0.042435787881281634,0.011628434926296585,0.0811514490797022,
0.5741497411019427,0.02919892877301797,0.044142550452520246,0.019887676851209943,0.0767789143376246,0.04233081068908757,0.011636741246810413,0.08106157767557691,
0.5749438624589294,0.029189707405644666,0.04422874202904793,0.019877611828893173,0.07673985197771488,0.04222496965258842,0.011645797538500244,0.08097328132903144,
0.5757379838159169,0.029182490603707464,0.04431393371832115,0.019867753554200767,0.07670574423078243,0.04211831463976005,0.011655611221160711,0.080886674083588,
0.5765321051729044,0.029177292139917117,0.04439811805166313,0.019858131345384826,0.07667663886570104,0.0420108957151802,0.011666189328152781,0.08080186939118483,
0.577326226529892,0.02917412454384685,0.044481287826531095,0.01984877464501868,0.07665258081881629,0.04190276312399181,0.011677538501229746,0.08071898005468808,
0.5781203478868795,0.029172999099441887,0.04456343610397467,0.01983971300381382,0.07663361217232639,0.04179396727592007,0.011689664985557405,0.08063811817060476,
0.578914469243867,0.02917392584315575,0.04464455620613938,0.019830976064262474,0.07661977213420239,0.041684558729349,0.011702574624932583,0.08055939507202346,
0.5797085906008546,0.02917691356270921,0.04472464171381379,0.019822593544114187,0.07661109701965534,0.04157458817546382,0.011716272857204052,0.08048292127180938,
0.5805027119578421,0.029181969796467925,0.044803686464019,0.01981459521969467,0.07660762023415743,0.04146410642246457,0.011730764709899989,0.08040880640608013,
0.5812968333148296,0.02918910083343478,0.044881684547638696,0.019807010909075263,0.07660937225802275,0.04135316437985686,0.011746054796065893,0.0803371591779891,
0.5820909546718172,0.029198311713852794,0.044958630307088104,0.0197998704551015,0.07661638063255265,0.04124181304282504,0.011762147310316835,0.08026808730184322,
