time,DELT1,DELT3,TRIlg,TRIlat,BIClg,BICsh,BRA,
0.0,0.03977614310063527,0.1912432462284591,0.05548123184192227,0.025101406722667655,0.006835152309796257,0.0023024427621233063,0.004646782392190701,
0.000794121356989308,0.0396295153634395,0.19149814466546544,0.0544868658220059,0.024856438713788488,0.0068400500473114224,0.002305323940346608,0.004595669594106981,
0.0015882427139750632,0.039484756851188074,0.19174038807898897,0.053505526940860054,0.024617384734805733,0.006845348686446669,0.002308411693855728,0.004547055757861304,
0.002382364070964371,0.03934192874703193,0.1919698428586846,0.05253723290555988,0.02438427092650067,0.006851057631304777,0.0023117084711285394,0.004500998602678374,
0.0031764854279501265,0.039201091039452275,0.1921863823437895,0.05158199856594992,0.02415712231498902,0.006857186481062936,0.0023152167374058275,0.0044575556055467735,
0.003970606784939434,0.039062302496395175,0.19238988688589176,0.05063983592870077,0.02393596282357301,0.006863745032792098,0.0023189389749716867,0.0044167839747243,
0.00476472814192519,0.03892562064006692,0.19258024390645684,0.049710754171996316,0.023720815284970855,0.006870743284170019,0.002322877683408857,0.004378740623092639,
0.005558849498914498,0.038791101722395825,0.1927573479490496,0.04879475966084218,0.023511701453901662,0.006878191436081969,0.0023270353798281558,0.004343482141372031,
0.006352970855900253,0.03865880070116537,0.19292110072619154,0.0478918559629873,0.0233086420200036,0.006886099895103186,0.0023314145990712015,0.0043110647712068005,
0.007147092212889561,0.038528771216823667,0.19307141116080284,0.04700204386545041,0.02311165662106307,0.00689447927585708,0.0023360178938856184,0.004281544378132728,
0.007941213569875316,0.03840106556997379,0.19320819542218226,0.0461253213916442,0.02292076385653247,0.006903340403243259,0.0023408478350719604,0.0042549764244374155,
0.008735334926864624,0.03827573469954907,0.1933313769564847,0.04526168381908984,0.02273598130131427,0.006912694314529457,0.002345907011601587,0.004231415941924923,
0.00952945628385038,0.03815282816167763,0.19344088651166327,0.04441112369771527,0.02255732551978877,0.006922552261301484,0.0023511980307047695,0.004210917504596134,
0.010323577640839687,0.03803239410923965,0.1935366621568469,0.04357363086873062,0.022384812080063227,0.006932925711265302,0.0023567235179282955,0.004193535201256378,
0.011117698997825443,0.037914479272121354,0.19361864929613468,0.04274919248407488,0.022218455568419955,0.006943826349895445,0.002362486117161879,0.004179322608062018,
0.011911820354811198,0.03779912893816887,0.1936868006767905,0.04193779302642759,0.02205826960394087,0.006955266081924009,0.002368488490632682,0.004168332761017844,
0.012705941711800506,0.037686386934845474,0.19374107639183114,0.04113941432978012,0.021904266853286326,0.006967257032664496,0.00237473331886729,0.004160618128437213,
0.013500063068786261,0.03757629561159517,0.19378144387700552,0.04035403560056093,0.02175645904560582,0.00697981154916484,0.0023812233006205003,0.00415623058337704,
0.014294184425775569,0.037468895822915696,0.19380787790217113,0.03958163343930963,0.02161485698755867,0.00699294220118403,0.0023879611527702882,0.004155221376059781,
0.015088305782761324,0.03736422691214396,0.19382036055707877,0.03882218186289438,0.021479470578422512,0.007006661781986822,0.002394949610178342,0.004157641106294784,
0.015882427139750632,0.03726232669595652,0.19381888123158333,0.03807565232726765,0.021350308825268,0.0070209833089511,0.002402191425515571,0.004163539695911379,
0.016676548496736388,0.03716323144958793,0.193803436590305,0.03734201375075529,0.02122737985817793,0.007035920023982489,0.0024096893690520077,0.004172966361216282,
0.017470669853725695,0.03706697589276948,0.1937740305417719,0.03662123253787375,0.021110690945489508,0.007051485393731009,0.0024174462284105424,0.004185969585487921,
0.01826479121071145,0.03697359317639078,0.19373067420208012,0.03591327260367058,0.021000248509038626,0.007067693109604573,0.002425464808283933,0.004202597091520445,
0.01905891256770076,0.0368831148698866,0.1936733858531144,0.03521809539858309,0.0208960581393853,0.007084557087574249,0.0024337479301145687,0.004222895814230255,
0.019853033924686514,0.036795570949351174,0.19360219089537808,0.03453565993381009,0.020798124610999707,0.007102091467766378,0.002442298431736455,0.004246911873337998,
0.020647155281675822,0.03671098978638241,0.19351712179548752,0.03386592280719157,0.02070645189738857,0.007120310613836661,0.002451119166978912,0.0042746905461390275,
0.021441276638661577,0.036629398137657726,0.19341821802839007,0.03320883822959099,0.020621043186141982,0.007139229112121566,0.002460213005231493,0.004306276240375485,
0.022235397995650885,0.036550821135243765,0.19330552601437379,0.03256435805177484,0.020541900893881162,0.007158861770562441,0.0024695828309696595,0.004341712467223171,
0.02302951935263664,0.03647528227764176,0.1931790990509392,0.03193243179178391,0.02046902668108802,0.007179223617397917,0.002479231543240731,0.004381041814406515,
0.02382364070962595,0.036402803421570436,0.19303899723961213,0.031313006662790466,0.020402421466797657,0.007200329899620313,0.0024891620551096617,0.0044243059194549765,
0.024617762066611704,0.036333404774487946,0.19288528740777983,0.030706027601435395,0.02034208544313551,0.007222196081191933,0.0024993772930642106,0.00447154544311433,
0.02541188342360101,0.03626710488785464,0.19271804302563966,0.030111437296639402,0.02028801808968117,0.007244837841017294,0.0025098801963790718,0.004522800042926322,
0.026206004780586767,0.036203920651137846,0.19253734411835438,0.029529176218881657,0.02024021818764135,0.007268271070667483,0.002520673716438564,0.0045781083469902655,
0.027000126137576075,0.036143867286560244,0.1923432771735127,0.028959182649939512,0.020198683833814984,0.007292511871853025,0.0025317608160174815,0.004637507927920204,
0.02779424749456183,0.03608695834459285,0.1921359350439999,0.028401392713082462,0.020163412454333736,0.007317576553641807,0.0025431444685197323,0.004701035277011295,
0.028588368851551138,0.03603320570019386,0.1919154168463885,0.027855740403713313,0.0201344008181618,0.00734348162941882,0.002554827657174396,0.004768725778629191,
0.029382490208536893,0.035982619549794134,0.19168182785496193,0.027322157620449306,0.020111645050339168,0.007370243813584651,0.0025668133741888594,0.004840613684836167,
0.0301766115655262,0.03593520840903026,0.19143527939149188,0.026800574196635552,0.020095140644953165,0.007397880017989831,0.0025791046198587026,0.0049167320902678115,
0.030970732922511957,0.035890979111225685,0.19117588871089206,0.02629091793228311,0.020084882477823356,0.007426407348102394,0.002591704401634018,0.0049971129072741635,
0.031764854279501265,0.03584993680662073,0.19090377888287827,0.025793114626423717,0.020080864818885522,0.007455843098906169,0.002604615733141875,0.005081786841339154,
0.03255897563648702,0.03581208496235171,0.19061907866976652,0.0253070881098728,0.02008308134426077,0.007486204750527563,0.002617841633164654,0.005170783366792256,
0.03335309699347633,0.0357774253631796,0.19032192240054743,0.024832760278392266,0.02009152514799639,0.007517509963588745,0.002631385124573984,0.005264130702826298,
0.03414721835046208,0.035745958112968226,0.19001244984137852,0.02437005112624422,0.020106188753465502,0.007549776574285441,0.002645249233220062,0.005361855789835318,
0.03494133970744784,0.035717681636912246,0.18969080606263872,0.023918878780126586,0.020127064124412966,0.007583022589187753,0.0026594369867761285,0.0054639842660864435,
0.035735461064437146,0.035692592684514524,0.1893571413026948,0.023479159533481106,0.020154142675635638,0.007617266179762612,0.0026739514135379005,0.005570540444739689,
0.0365295824214229,0.03567068633331297,0.18901161082853205,0.023050807881164193,0.020187415283285284,0.007652525676616748,0.002688795541177785,0.0056815472912296145,
0.03732370377841221,0.035651955993356375,0.18865437479340527,0.022633736554470613,0.020226872294783278,0.007688819563459308,0.0027039723954537264,0.005797026401022717,
0.038117825135397965,0.035636393412428885,0.1882855980916695,0.022227856556499767,0.020272503538336283,0.007726166470783496,0.002719484998872538,0.005916997977764422,
0.03891194649238727,0.03562398868202249,0.18790545021095245,0.021833077197854215,0.020324298332042908,0.007764585169266835,0.002735336369307622,0.006041480811829551,
0.03970606784937303,0.03561473024405702,0.18751410508183394,0.021449306132659475,0.020382245492581448,0.007804094562889959,0.0027515295185709773,0.006170492259290032,
0.040500189206362336,0.0356086048983469,0.18711174092519914,0.021076449394894187,0.020446333343469673,0.007844713681774071,0.002768067450939428,0.006304048221313595,
0.04129431056334809,0.035605597810813704,0.18669854009743564,0.020714411435019276,0.020516549722887786,0.007886461674737503,0.002784953161635036,0.006442163124007137,
0.0420884319203374,0.03560569252244394,0.1862746889336465,0.02036309515689452,0.020592881991056255,0.007929357801572072,0.00280218963525967,0.006584849898718371,
0.042882553277323154,0.03560887095899078,0.18584037758905209,0.020022401954970716,0.020675317037160624,0.007973421425040216,0.002819779844183752,0.006732119962809301,
0.04367667463431246,0.035615113441419016,0.18539579987875618,0.0196922317517453,0.020763841285815942,0.008018672002594133,0.002837726746889206,0.006883983200914977,
0.04447079599129822,0.035624398697091594,0.18494115311605133,0.019372483035469137,0.020858440703063842,0.008065129077818534,0.00285603328626668,0.0070404479467009,
0.045264917348287526,0.03563670387169687,0.18447663794944102,0.019063052898091914,0.02095910080189573,0.008112812271598758,0.002874702387867138,0.007201520965132351,
0.04605903870527328,0.035652004541914896,0.18400245819855449,0.018763837073433275,0.021065806647296126,0.008161741273016415,0.002893736958107924,0.007367207435268816,
0.04685316006226259,0.03567027472882123,0.1835188206891317,0.018474729975566723,0.021178542860800502,0.008211935829974917,0.002913139882433469,0.0075375109335965515,
0.047647281419248344,0.03569148691202665,0.18302593508725573,0.01819562473740308,0.021297293624562636,0.008263415739557637,0.0029329140234308176,0.007712433417912254,
0.04844140277623765,0.035715612044550864,0.18252401373300678,0.017926413249460024,0.021422042684926812,0.008316200838121653,0.0029530622189002033,0.007891975211770657,
0.04923552413322341,0.0357426195684282,0.18201327147371543,0.017666986198804163,0.021552773355500755,0.008370310991130388,0.002973587279880924,0.008076134989508764,
0.050029645490212715,0.0357724774310432,0.18149392549698726,0.017417233108151808,0.02168946851972558,0.008425766082728684,0.002994491988632817,0.00826490976185926,
0.05082376684719847,0.03580515210219339,0.18096619516367274,0.017177042375114485,0.021832110632939782,0.008482586005064154,0.0030157790965736632,0.008458294862165549,
0.05161788820418778,0.03584060859187699,0.18043030184095274,0.016946301311575068,0.02198068172393455,0.008540790647358961,0.0030374513221729086,0.008656283933210687,
0.052412009561173534,0.035878810468802334,0.17988646873570807,0.016724896183180363,0.02213516339599829,0.008600399884736454,0.0030595113488021066,0.008858868914672332,
0.05320613091816284,0.035919719879616195,0.17933492072834084,0.01651271224893569,0.022295536827448774,0.008661433566807354,0.0030819618225425604,0.009066040031215682,
0.0540002522751486,0.035963297568847516,0.17877588420720988,0.016309633800887114,0.022461782771651798,0.008723911506020447,0.0031048053499506648,0.009277785781236203,
0.054794373632137905,0.03600950289956286,0.1782095869038423,0.016115544203876665,0.022633881556525973,0.008787853465783063,0.0031280444957815143,0.009494092926263754,
0.05558849498912366,0.036058293874729655,0.17763625772907884,0.01593032593535593,0.022811813083533625,0.008853279148356834,0.003151681780671394,0.009714946481039542,
0.05638261634611297,0.036109627159283,0.1770561266103077,0.015753860625243244,0.02299555682615848,0.008920208182534606,0.0031757196787798093,0.009940329704277143,
0.05717673770309872,0.036163458102891455,0.17646942432993767,0.015586029095809634,0.023185091827871297,0.00898866011110449,0.0032001606153917858,0.010170224090118632,
0.05797085906008448,0.036219740763416663,0.17587638236525865,0.015426711401578775,0.023380396699585332,0.009058654378107447,0.003225006964481198,0.010404609360296628,
0.05876498041707379,0.03627842793106157,0.17527723272983114,0.015275786869225955,0.023581449616603925,0.009130210315895,0.0032502610462359837,0.010643463457012867,
0.05955910177405954,0.03633947115320146,0.17467220781654602,0.015133134137461179,0.023788228315063328,0.009203347131993925,0.003275925124546132,0.010886762536543618,
0.06035322313104885,0.03640282075989144,0.17406154024248802,0.01499863119688144,0.024000710087874338,0.009278083895785032,0.0033020014044554285,0.01113448096358217,
0.061147344488034605,0.036468425890044,0.17344546269573455,0.014872155429777162,0.02421887178016701,0.00935443952500344,0.0033284920295779713,0.011386591306328235,
0.06194146584502391,0.03653623451826935,0.17282420778421487,0.014753583649878013,0.024442689784243365,0.009432432772067956,0.0033553990794805656,0.011643064332333924,
0.06273558720200967,0.03660619348237115,0.17219800788675171,0.014642792142023131,0.024672140034043534,0.009512082210247469,0.003382724567032181,0.011903869005115687,
0.06352970855899898,0.03667824851148957,0.17156709500640088,0.014539656701740903,0.024907197999131617,0.009593406219672479,0.003410470435721716,0.012168972481541385,
0.06432382991598473,0.03675234425488316,0.17093170062620075,0.01444405267472356,0.025147838678207957,0.009676422973200146,0.0034386385569454086,0.012438340110001417,
0.06511795127297404,0.036828424311340605,0.1702920555674383,0.014355854996181859,0.02539403659215539,0.009761150422141523,0.0034672307272652935,0.012711935429372509,
0.0659120726299598,0.03690643125921247,0.16964838985053296,0.014274938230065232,0.02564576577662748,0.009847606281859812,0.0034962486656402066,0.012989720168782554,
0.0667061939869491,0.03698630668705327,0.16900093255863471,0.014201176608132868,0.02590299977418754,0.009935808017248794,0.0035256940106309065,0.013271654248184621,
0.06750031534393486,0.03706799122486291,0.16834991170402752,0.014134444068861265,0.026165711626007997,0.010025772828100729,0.003555568317580978,0.013557695779748018,
0.06829443670092417,0.037151424575916234,0.1676955540974241,0.014074614296174022,0.026433873863140025,0.010117517634373326,0.0035858730557752614,0.013847801070073917,
0.06908855805790992,0.03723654554916903,0.16703808522023275,0.014021560757979612,0.026707458497364344,0.010211059061365598,0.003616609605577652,0.014141924623242883,
0.06988267941489923,0.03732329209222797,0.1663777290998712,0.013975156744503203,0.02698643701163448,0.010306413424812625,0.0036477792555501677,0.014440019144701353,
0.07067680077188498,0.03741160132487143,0.16571470818819786,0.01393527540639859,0.027270780350124587,0.01040359671590938,0.003679383199555323,0.014742035545993789,
0.07147092212887429,0.037501409573107686,0.16504924324312503,0.013901789792626584,0.027560458907894502,0.010502624586274135,0.003711422533843872,0.015047922950346966,
0.07226504348586005,0.03759265240375607,0.16438155321347422,0.013874572888086344,0.02785544252018521,0.010603512332862056,0.00374389825413015,0.015357628699112587,
0.07305916484284936,0.03768526465953637,0.16371185512712635,0.013853497650986283,0.02815570045135876,0.010706274882839789,0.00377681125265726,0.01567109835907412,
0.07385328619983511,0.0377791804946508,0.16304036398251595,0.013838437049941438,0.02846120138349706,0.010810926778432072,0.003810162315254484,0.015988275730623423,
0.07464740755682442,0.0378743334108425,0.1623672926435125,0.013829264100784437,0.028771913404674665,0.010917482161751637,0.0038439521183893676,0.016309102856812564,
0.07544152891381017,0.0379706562939139,0.16169285173772682,0.013825851903077363,0.02908780399692129,0.011025954759623723,0.0038781812262170144,0.016633520033285738,
0.07623565027079948,0.03806808145068736,0.1610172495582751,0.013828073676312082,0.029408840023890315,0.011136357868416852,0.003912850087629214,0.016961465819096147,
0.07702977162778524,0.03816654064639042,0.16034069196902687,0.013835802795786842,0.029734987718250134,0.011248704338891576,0.003947959033306105,0.017292877048412154,
0.07782389298477455,0.03826596514244665,0.1596633823133597,0.013848912828147205,0.03006621266881569,0.011363006561079065,0.003983508272773166,0.017627688843117006,
0.0786180143417603,0.03836628573465324,0.1589855213264365,0.013867277566579654,0.030402479807438185,0.01147927644920157,0.004019497891466365,0.0179658346263058,
0.07941213569874961,0.03846743279172513,0.15830730705101703,0.013890771065646429,0.030743753395671404,0.011597525426646962,0.004055927847808402,0.018307246136683334,
0.08020625705573536,0.038569336294185484,0.15762893475680903,0.013919267675750503,0.031089997011233664,0.011717764411009687,0.00409279797029903,0.018651853443865978,
0.08100037841272467,0.038671925873581245,0.1569505968633608,0.013952642077219806,0.03144117353428481,0.011840003799210479,0.004130107954622496,0.018999584964590463,
0.08179449976971043,0.03877513085200246,0.15627248286649129,0.013990769314000197,0.03179724513353816,0.011964253452707402,0.004167857360775196,0.019350367479832084,
0.08258862112669618,0.03887888028188278,0.15559477926824816,0.01403352482694689,0.032158173252227966,0.01209052268281074,0.004206045610216699,0.019704126152834543,
0.08338274248368549,0.03898310298605867,0.1549176695103808,0.014080784486704391,0.03252391859395301,0.012218820236114458,0.004244671983047311,0.02006078454805319,
0.08417686384067125,0.03908772759806391,0.15424133391130895,0.014132424626165268,0.032894441108418014,0.012349154280056947,0.004283735615215417,0.020420264651013077,
0.08497098519766055,0.039192682602635455,0.153565949606564,0.0141883220724984,0.03326969997709438,0.012481532388623788,0.004323235495757858,0.02078248688908289,
0.08576510655464631,0.03929789637640653,0.15289169049267567,0.01424835417873766,0.033649653598822535,0.01261596152820532,0.004363170464076643,0.02114737015316533,
0.08655922791163562,0.03940329722876192,0.1522187271744713,0.014312398854922321,0.034034259575378575,0.012752448043621831,0.004403539207255305,0.021514831820304278,
0.08735334926862137,0.03950881344283034,0.15154722691575215,0.014380334598780744,0.03442347469702801,0.012890997644329143,0.0044443402574182505,0.021884787777208464,
0.08814747062561068,0.039614373316588056,0.15087735359330615,0.01445204052594923,0.03481725492809034,0.013031615390817434,0.004485571989136433,0.022257152444691074,
0.08894159198259644,0.03971990520404774,0.15020926765421255,0.014527396399718274,0.035215555392538275,0.013174305681216,0.004527232616882728,0.02263183880302412,
0.08973571333958574,0.03982533755650595,0.1495431260763912,0.014606282660298675,0.03561833035965553,0.013319072238116743,0.004569320192540404,0.023008758418206137,
0.0905298346965715,0.03993059896382258,0.14887908233234412,0.014688580453600355,0.03602553322977779,0.01346591809562905,0.004611832602968053,0.023387821469141253,
0.0913239560535608,0.04003561819570501,0.14821728635603593,0.014774171659516938,0.03643711652014154,0.013614845586678711,0.00465476756762434,0.02376893677572718,
0.09211807741054656,0.04014032424296921,0.14755788451285434,0.014862938919709454,0.03685303185086572,0.013765856330563377,0.0046981226362559445,0.024152011827849186,
0.09291219876753587,0.04024464635875033,0.14690101957259055,0.014954765664882892,0.03727322993109153,0.013918951220777041,0.004741895186652053,0.02453695281527666,
0.09370632012452162,0.04034851409963454,0.146246830685376,0.015049536141549533,0.03769766054530541,0.014074130413115879,0.0047860824224687385,0.024923664658458328,
0.09450044148151093,0.04045185736668395,0.1455954533605096,0.015147135438273297,0.03812627253987077,0.014231393314077656,0.004830681371126536,0.025312051040211586,
0.09529456283849669,0.04055460644632616,0.1449470194481077,0.015247449511389654,0.038559013809793895,0.014390738569566797,0.004875688881784505,0.025702014438301057,
0.096088684195486,0.040656692051079586,0.1443016571235072,0.01535036521019585,0.038995831285749565,0.01455216405391699,0.004921101623394051,0.02609345615890072,
0.09688280555247175,0.040758045360085905,0.14365949087434984,0.015455770301606485,0.039436670921391775,0.014715666859243118,0.004966916082835694,0.02648627637093356,
0.09767692690946106,0.04085859805942064,0.1430206414902749,0.015563553494269824,0.03988147768097505,0.014881243285134007,0.0050131285631419735,0.026880374141281877,
0.09847104826644681,0.04095828238215282,0.14238522605514628,0.015673604462140365,0.040330195527311596,0.015048888828697265,0.005059735181809649,0.027275647470861017,
0.09926516962343612,0.041057031148124645,0.14175335794173743,0.01578581386750354,0.040782767410089425,0.015218598174967323,0.005106731869204256,0.027671993331548433,
0.10005929098042188,0.04115477780342187,0.14112514680879934,0.01590007338344865,0.04123913525457648,0.015390365187687549,0.0051541143670600625,0.0280693077039596,
0.10085341233741119,0.041251456459505946,0.14050069860043324,0.01601627571578634,0.04169923995073532,0.015564182900476927,0.005201878227078405,0.02846748561606147,
0.10164753369439694,0.041347001931978364,0.13988011554769117,0.01613431462440717,0.04216302134277295,0.01574004350839166,0.005250018809627305,0.028866421182613577,
0.10244165505138625,0.04144134977894831,0.13926349617232683,0.016254084944078102,0.04263041821914979,0.01591793835989164,0.005298531282545238,0.029266007645426178,
0.103235776408372,0.04153443633897422,0.13865093529261852,0.01637548260467397,0.043101368303071735,0.016097857949221434,0.0053474106200518115,0.029666137414424205,
0.10402989776536131,0.0416261987685503,0.13804252403118789,0.016498404650841014,0.04357580824348849,0.016279791909215205,0.005396651601768068,0.03006670210950495,
0.10482401912234707,0.04171657507910904,0.13743834982473638,0.016622749261090197,0.04405367360662129,0.016463729004534536,0.005446248811849054,0.03046759260317676,
0.10561814047933282,0.04180550417351092,0.13683849643562343,0.016748415766317838,0.04453489886804275,0.016649657125347845,0.0054961966382311425,0.03086869906396534,
0.10641226183632213,0.04189292588199251,0.1362430439652114,0.016875304667751487,0.04501941740533052,0.01683756328145977,0.005546489271996643,0.031269911000573476,
0.10720638319330789,0.041978780997544596,0.13565206886890196,0.017003317654319183,0.045507161491316575,0.01702743359689846,0.0055971207068579954,0.03167111730677933,
0.1080005045502972,0.04206301131069208,0.1350656439727914,0.017132357619440434,0.045998062287953397,0.017219253304968398,0.005648084738763885,0.032072206307057385,
0.10879462590728295,0.04214555964364762,0.1344838384918724,0.017262328677237454,0.04649204984081732,0.017413006743775987,0.005699374965629422,0.03247306580290594,
0.10958874726427226,0.04222636988381139,0.13390671804971205,0.017393136178165427,0.046989053074269184,0.017608677352234703,0.005750984787192445,0.032873583119863575,
0.11038286862125801,0.042305387016589556,0.13333434469953684,0.01752468672406079,0.0474889997872917,0.01780624766655641,0.005802907404997982,0.03327364515519701,
0.11117698997824732,0.04238255715750449,0.13276677694665825,0.01765688818260667,0.04799181665002261,0.01800569931723492,0.005855135822512681,0.033673138426241554,
0.11197111133523308,0.04245782758357029,0.13220406977217244,0.017789649701214855,0.04849742920100179,0.018207013026527465,0.005907662845371003,0.03407194911937468,
0.11276523269222238,0.0425311467639074,0.13164627465787182,0.01792288172032405,0.04900576184515011,0.018410168606439573,0.005960481081754788,0.03446996313960259,
0.11355935404920814,0.04260246438957072,0.13109343961230713,0.018056495986114078,0.049516737852497196,0.01861514495721812,0.006013582942907726,0.03486706616073896,
0.11435347540619745,0.04267173140256637,0.1305456091979414,0.018190405562636264,0.05003027935767471,0.018821920066357332,0.006066960643786098,0.03526314367615395,
0.1151475967631832,0.0427389000240324,0.13000282455933976,0.018324524843360175,0.05054630736019096,0.019030471008121885,0.006120606203847069,0.03565808105007162,
0.11594171812017251,0.042803923781559894,0.1294651234523417,0.018458769562137323,0.05106474172550237,0.01924077394359097,0.006174511447975662,0.03605176356939242,
0.11673583947715827,0.0428667575356313,0.12893254027416462,0.018593056803582572,0.05158550118689643,0.01945280412122686,0.006228668007551393,0.03644407649601719,
0.11752996083414757,0.04292735750515345,0.12840510609439043,0.01872730501287411,0.052108503348200365,0.019666535877970983,0.006283067321655455,0.036834905119648466,
0.11832408219113333,0.042985681292063885,0.1278828486867893,0.018861434004973445,0.05263366468732881,0.01988194264087035,0.006337700638419126,0.037224134811043884,
0.11911820354812264,0.04304168790498944,0.12736579256193867,0.01899536497326669,0.053160900560683566,0.020098996929236695,0.006392559016514018,0.03761165107569648,
0.11991232490510839,0.04309533778193741,0.1268539590005959,0.019129020497629077,0.05369012520841775,0.020317670357340327,0.006447633326784558,0.037997339607915334,
0.1207064462620977,0.04314659281200008,0.12634736608778818,0.019262324551914498,0.05422125176057595,0.020537933637640438,0.006502914254023028,0.03838108634528031,
0.12150056761908345,0.04319541635605455,0.12584602874758394,0.019395202510872477,0.0547541922441216,0.020759756584553073,0.006558392298887321,0.038762777523443336,
0.12229468897607276,0.04324177326644081,0.12534995877851385,0.01952758115649494,0.055288857590861884,0.02098310811875772,0.006614057779961397,0.03914229973124881,
0.12308881033305852,0.04328562990560191,0.12485916488961075,0.019659388683795697,0.05582515764628012,0.02120795627204305,0.006669900835958314,0.03951953996614458,
0.12388293169004783,0.04332695416367103,0.12437365273704121,0.01979055470602555,0.056363001179285104,0.021434268192692073,0.006725911428065559,0.039894385689855046,
0.12467705304703358,0.04336571547499139,0.12389342496130305,0.019921010259326535,0.05690229589288598,0.021662010151406404,0.006782079342432267,0.04026672488428724,
0.1254711744040229,0.04340188483355615,0.12341848122496613,0.020050687806828865,0.057442948435801104,0.021891147547769194,0.006838394192797777,0.04063644610764037,
0.12626529576100864,0.0434354348073561,0.1229488182509348,0.02017952124219448,0.05798486441500834,0.022121644917245675,0.006894845423260821,0.04100343855068911,
0.12705941711799795,0.043466339551624586,0.1224844298612139,0.020307445892611627,0.05852794840924412,0.02235346593872004,0.006951422311188525,0.04136759209321018,
0.1278535384749837,0.043494574820969724,0.12202530701616057,0.020434398521244897,0.059072103983458,0.022586573442566964,0.007008113970264284,0.04172879736052188,
0.12864765983196946,0.04352011798038543,0.12157143785420794,0.020560317329145806,0.05961723370422871,0.022820929419255787,0.007064909353673401,0.0420869457801056,
0.12944178118895877,0.04354294801513377,0.12112280773204684,0.020685141956628992,0.06016323915614735,0.023056495028484773,0.007121797257425301,0.04244192963827808,
0.13023590254594453,0.04356304553949224,0.1206793992652545,0.02080881348411969,0.06071002095917269,0.02329323060884278,0.007178766323810931,0.04279364213688313,
0.13103002390293383,0.04358039280436069,0.1202411923693606,0.020931274432478324,0.061257478786962825,0.023531095687994993,0.007235805044993882,0.04314197744997087,
0.1318241452599196,0.04359497370372363,0.11980816430134261,0.0210524687628084,0.06180551138618735,0.023770048993389352,0.007292901766733633,0.04348683078043268,
0.1326182666169089,0.04360677377996475,0.11938028970154327,0.021172341875754286,0.06235401659682324,0.024010048463479518,0.0073500446922391905,0.04382809841655944,
0.13341238797389465,0.043615780228031586,0.11895754063600558,0.021290840610295538,0.06290289137343695,0.024251051259460144,0.007407221886151284,0.04416567778849074,
0.13420650933088396,0.04362198189844916,0.11853988663922066,0.021407913242044947,0.06345203180745503,0.024493013777509808,0.007464421278651123,0.04449946752452221,
0.13500063068786972,0.043625369299182426,0.11812729475728606,0.02152350948105762,0.06400133315042414,0.024735891661536308,0.00752163066969362,0.04482936750723821,
0.13579475204485902,0.043625934596348566,0.11771972959147299,0.021637580469158774,0.06455068983826195,0.024979639816419034,0.007578837733362872,0.04515527892943664,
0.13658887340184478,0.04362367161378101,0.11731715334220143,0.021750078776798087,0.06509999551649819,0.02522421242174239,0.007636030022347557,0.04547710434981245,
0.1373829947588341,0.04361857583144803,0.11691952585342363,0.02186095839943875,0.06564914306650534,0.02546956294601425,0.007693194972533809,0.045794747748366435,
0.13817711611581984,0.04361064438272967,0.11652680465741685,0.021970174753489582,0.06619802463271791,0.025715644161362586,0.007750319907712975,0.04610811458150547,
0.13897123747280915,0.04359987605055794,0.11613894501998702,0.022077684671788785,0.06674653165083802,0.025962408158703498,0.007807392044401588,0.04641711183679997,
0.1397653588297949,0.04358627126242566,0.11575589998608583,0.02218344639864805,0.067294554877024,0.026209806363373146,0.00786439849677072,0.04672164808736461,
0.1405594801867842,0.043569832084270885,0.11537762042584428,0.02228741958446605,0.06784198441805853,0.026457789551215898,0.007921326281681856,0.04702163354582765,
0.14135360154376997,0.043550562213244125,0.1150040550810251,0.02238956527992043,0.06838870976249148,0.026706307865120727,0.007978162323826228,0.04731698011785417,
0.14214772290075928,0.04352846696936704,0.11463515061189836,0.022489845929747555,0.06893461981275206,0.02695531083199736,0.00803489346096453,0.04760760145518813,
0.14294184425774503,0.04350355328609161,0.11427085164454283,0.02258822536611959,0.06947960291822387,0.02720474738018353,0.008091506449263791,0.047893413008177906,
0.14373596561473434,0.04347582969977021,0.11391110081857686,0.022684668801628373,0.07002354690927541,0.02745456585727416,0.00814798796872813,0.048174332077750216,
0.1445300869717201,0.043445306338047295,0.11355583883532251,0.022779142821885864,0.07056633913223855,0.02770471404836327,0.008204324628719962,0.048450277866796405,
0.1453242083287094,0.04341199490718505,0.11320500450640579,0.022871615377750953,0.07110786648532492,0.02795513919468882,0.00826050297356821,0.04872117153093547,
0.14611832968569516,0.04337590867833547,0.1128585348027961,0.022962055777192552,0.07164801545547105,0.028205788012670704,0.008316509488259974,0.04898693622861757,
0.14691245104268447,0.043337062472772546,0.11251636490428715,0.023050434676799035,0.07218667215610033,0.02845660671333163,0.00837233060421202,0.04924749717053163,
0.14770657239967022,0.04329547264609922,0.1121784282494216,0.02313672407294405,0.07272372236579079,0.02870754102209057,0.008427952705118433,0.04950278166828096,
0.14850069375665953,0.04325115707144438,0.11184465658586089,0.023220897292618847,0.07325905156783466,0.028958536198918198,0.008483362132870674,0.049752719182289906,
0.14929481511364529,0.04320413512166634,0.11151498002120128,0.023302928983941172,0.07379254499067638,0.029209537058843445,0.008538545193546307,0.04999724136890507,
0.1500889364706346,0.04315442765057961,0.11118932707423611,0.023382795106351082,0.07432408764921397,0.029460487992800252,0.008593488163462495,0.05023628212665417,
0.15088305782762035,0.04310205697322305,0.11086762472666312,0.023460472920503624,0.07485356438694746,0.02971133298880349,0.00864817729529046,0.05046977764162569,
0.15167717918460966,0.043047046845187814,0.11054979847523555,0.023535940977868673,0.07538085991895778,0.02996201565344271,0.008702598824226922,0.050697666431932256,
0.1524713005415954,0.042989422441024716,0.11023577238435428,0.02360917911004813,0.0759058588756979,0.030212479233682366,0.008756738974218563,0.05091988939122093,
0.15326542189858117,0.042929210331750976,0.10992546913909745,0.0236801684178205,0.07642844584757753,0.030462666638956998,0.008810583964235646,0.0511363898311934,
0.15405954325557047,0.04286643846147738,0.10961881009868249,0.023748891259922977,0.07694850543032135,0.030712520463549903,0.008864120014590696,0.05134711352309946,
0.15485366461255623,0.042801136123177444,0.10931571535035467,0.023815331241581073,0.07746592227107982,0.030961983009243556,0.008917333353298284,0.051552008738166774,
0.15564778596954554,0.04273333393362105,0.10901610376369501,0.023879473202795758,0.07798058111527122,0.031210996308230005,0.008970210222471922,0.05175102628693054,
0.1564419073265313,0.04266306380749557,0.1087198930453391,0.023941303206398035,0.07849236685413148,0.03145950214626962,0.009022736884754027,0.05194411955742647,
0.1572360286835206,0.042590358930738245,0.1084269997940976,0.0240008085258808,0.07900116457294867,0.03170744208608615,0.009074899629774938,0.05213124455221083,
0.15803015004050636,0.042515253733104004,0.10813733955646711,0.024057977633017685,0.07950685959995704,0.03195475749098647,0.009126684780637008,0.0523123599241717,
0.15882427139749566,0.042437783859993826,0.1078508268825193,0.024112800185278605,0.0800093375558653,0.032201389548693074,0.009178078700419774,0.052487427011095766,
0.15961839275448142,0.04235798614356909,0.10756737538215491,0.02416526701305154,0.0805084844039925,0.032447279295377385,0.00922906779870222,0.05265640986895541,
0.16041251411147073,0.04227589857317778,0.10728689778170725,0.024215370106680015,0.08100418650098445,0.032692367639882106,0.009279638538098137,0.05281927530388112,
0.16120663546845648,0.04219156026511935,0.10700930598087909,0.024263102603325672,0.08149633064808219,0.03293659538812054,0.009329777440800643,0.05297599290278479,
0.1620007568254458,0.042105011431775086,0.1067345111099947,0.02430845877366534,0.08198480414291329,0.03317990326764112,0.009379471095131889,0.05312653506260005,
0.16279487818243155,0.04201629335013167,0.10646242358754851,0.02435143400843161,0.0824694948317763,0.03342223195234481,0.00942870616209411,0.053270877018106094,
0.16358899953942085,0.041925448329725695,0.10619295317802929,0.024392024804806064,0.08295029116238772,0.03366352208734366,0.009477469381918038,0.05340899686830197,
0.1643831208964066,0.04183251968003757,0.10592600904999834,0.024430228752674085,0.0834270822370597,0.03390371431394811,0.009525747580604845,0.053540875601299234,
0.16517724225339592,0.04173755167736378,0.10566149983439801,0.02446604452075002,0.08389975786627679,0.03414274929477115,0.00957352767645773,0.053666497117701106,
0.16597136361038167,0.041640589531196336,0.10539933368306588,0.024499471842581368,0.08436820862263872,0.034380567738936975,0.009620796686599337,0.053785848252437145,
0.16676548496737098,0.041541679350138964,0.10513941832742807,0.024530511502440584,0.08483232589513544,0.03461711042738205,0.009667541733471171,0.05389891879502337,
0.16755960632435674,0.041440868107389735,0.10488166113734408,0.02455916532111287,0.08529200194372101,0.03485231823823613,0.009713750051311238,0.054005701508218214,
0.16835372768134604,0.04133820360582009,0.10462596918007402,0.024585436141588153,0.0857471299541511,0.03508613217227099,0.009759408992606137,0.054106192145045987,
0.1691478490383318,0.04123373444268061,0.10437224927933787,0.024609327814665332,0.08619760409304951,0.03531849337840442,0.009804506034513903,0.05420038946416,
0.1699419703953211,0.041127509973963826,0.10412040807443555,0.024630845184476703,0.08664331956316752,0.03554934317924684,0.009849028785253833,0.0542882952435188,
0.17073609175230686,0.04101958027845471,0.10387035207939373,0.024649994073940328,0.08708417265880006,0.035778623096677925,0.009892964990459696,0.05436991429234998,
0.17153021310929617,0.04090999612149974,0.10362198774210583,0.024666781270147913,0.08752006082132209,0.036006274877440785,0.009936302539492648,0.05444525446137688,
0.17232433446628193,0.04079880891852525,0.10337522150342891,0.02468121450969557,0.08795088269480787,0.036232240518740515,0.00997902947171022,0.054514326651284896,
0.17311845582327123,0.04068607069833613,0.10312995985620081,0.024693302463964763,0.0883765381816954,0.036456462293834604,0.010021133982687818,0.05457714481940534,
0.173912577180257,0.04057183406622587,0.10288610940413978,0.02470305472436023,0.08879692849845824,0.03667888277760185,0.010062604430389232,0.054633725984595746,
0.1747066985372463,0.04045615216692915,0.10264357692058707,0.024710481787511954,0.08921195623124613,0.036899444872076796,0.010103429341282576,0.05468409023029725,
0.17550081989423205,0.040339078647448005,0.10240226940705227,0.024715595040447725,0.08962152539145563,0.037118091831936526,0.010143597416398236,0.05472826070575085,
0.1762949412512178,0.04022066761978262,0.10216209415152058,0.024718406745742712,0.0900255414711917,0.03733476728992647,0.010183097537325428,0.05476626362535564,
0.17708906260820712,0.04010097362359785,0.101922958786479,0.024718930026652264,0.09042391149858077,0.037549415282211826,0.010221918772143929,0.05479812826615382,
0.17788318396519287,0.03998005158885622,0.10168477134661874,0.02471717885223406,0.09081654409289551,0.03776198027364121,0.010260050381287739,0.054823886963428804,
0.17867730532218218,0.039857956798448314,0.1014474403261701,0.024713168022465353,0.09120334951945157,0.03797240718290889,0.010297481823337314,0.054843575104404504,
0.17947142667916793,0.03973474485085089,0.10121087473582471,0.02470691315336087,0.09158423974423584,0.03818064140760224,0.010334202760737154,0.054857231120035425,
0.18026554803615724,0.03961047162284312,0.10097498415919971,0.024698430662096756,0.09195912848822607,0.038386628849120516,0.010370203065435594,0.05486489647487845,
0.181059669393143,0.039485193232310936,0.10073967880879825,0.024687737752145732,0.0923279312813613,0.038590315937451464,0.010405472824443665,0.054866615655039745,
0.1818537907501323,0.039358966001169254,0.10050486958141971,0.024674852398428343,0.09269056551612227,0.03879164965579204,0.01044000234531,0.05486243615419117,
0.18264791210711806,0.039231846418431394,0.10027046811297309,0.0246597933324851,0.09304695050068115,0.038990577564999615,0.010473782161508736,0.0548524084576531,
0.18344203346410737,0.039103891103454684,0.10003638683264647,0.024642580027673965,0.09339700751157949,0.0391870478278598,0.010506803037737543,0.054836586024541875,
0.18423615482109312,0.03897515676939087,0.09980253901638533,0.024623232684397478,0.0937406598458942,0.03938100923315747,0.010539055975122898,0.054815025267982265,
0.18503027617808243,0.0388457001868697,0.09956883883963276,0.02460177221536374,0.09407783287285004,0.039572411219537085,0.010570532216329842,0.05478778553338711,
0.1858243975350682,0.03871557814794302,0.09933520142928441,0.02457822023088497,0.09440845408483807,0.039761203899138946,0.010601223250573506,0.05475492907480839,
0.1866185188920575,0.03858484743031713,0.09910154291481156,0.024552599024217393,0.09473245314779959,0.039947338080997756,0.010631120818529812,0.05471652102936593,
0.18741264024904325,0.03845356476189973,0.09886778047850592,0.02452493155694609,0.09504976195093433,0.04013076529419005,0.01066021691714276,0.05467262938976189,
0.18820676160603256,0.03832178678568787,0.09863383240480031,0.02449524144441796,0.09536031465569333,0.04031143781071726,0.010688503804325861,0.05462332497489125,
0.1890008829630183,0.03818957002502251,0.09839961812861961,0.024463552941226006,0.09566404774401543,0.04048930866811129,0.010715974003555277,0.05456868139856058,
0.18979500432000762,0.03805697084923492,0.09816505828271786,0.0244298909267478,0.0959609000657674,0.04066433169174932,0.010742620308352373,0.05450877503632921,
0.19058912567699338,0.037924045439709266,0.09793007474395748,0.024394280890740985,0.09625081288534808,0.040836461516865055,0.01076843578665337,0.05444368499048931,
0.19138324703398268,0.037790849756385456,0.09769459067848836,0.024356748918998274,0.09653372992741685,0.04100565361024355,0.010793413785063957,0.05437349305320287,
0.19217736839096844,0.03765743950472536,0.09745853058578498,0.0243173216790643,0.09680959742170699,0.04117186429158695,0.010817547932996642,0.05429828366781628,
0.19297148974795775,0.037523870103165144,0.09722182034150155,0.02427602640601658,0.09707836414688562,0.041335050754538555,0.01084083214668887,0.05421814388837465,
0.1937656111049435,0.03739019665107562,0.09698438723910592,0.024232890888312483,0.09733998147342167,0.041495171087352956,0.01086326063309984,0.054133163337360304,
0.1945597324619328,0.03725647389725202,0.0967461600302555,0.024187943453704185,0.09759440340542433,0.04165218429319993,0.01088482789368415,0.05404343416168191,
0.19535385381891857,0.03712275620895374,0.09650706896387919,0.02414121295522326,0.09784158662141501,0.04180605031009006,0.010905528728040396,0.05394905098694268,
0.19614797517590787,0.036989097541514075,0.09626704582393218,0.024092728757236316,0.09808149051399645,0.041956730030410484,0.010925358237432911,0.05385011087001794,
0.19694209653289363,0.03685555140853913,0.09602602396579134,0.024042520721573132,0.09831407722838346,0.0421041853200588,0.010944311828184968,0.05374671324997447,
0.19773621788988294,0.03672217085271457,0.09578393835126188,0.023990619193728486,0.09853931169976081,0.042248379037164205,0.010962385214941788,0.053638959897365834,
0.1985303392468687,0.03658900841723797,0.09554072558216797,0.023937054989138704,0.09875716168943362,0.042389275050384444,0.010979574423801737,0.053526954861939736,
0.19932446060385445,0.03645611611789402,0.09529632393250202,0.023881859379533837,0.09896759781973789,0.042526838256767695,0.010995875795314266,0.05341080441879546,
0.20011858196084376,0.03632354541578898,0.09505067337910968,0.023825064079366118,0.09917059360767805,0.042661034599168875,0.011011285987343085,0.0532906170130305,
0.2009127033178295,0.03619134719076021,0.09480371563089049,0.02376670123231525,0.09936612549726043,0.042791831083209844,0.011025801977793197,0.05316650320291811,
0.20170682467481882,0.03605957171547568,0.09455539415649565,0.02370680339787097,0.09955417289049137,0.04291919579377337,0.011039421067200437,0.053038575601658096,
0.20250094603180457,0.035928268630237854,0.09430565421050799,0.02364540353799307,0.09973471817701059,0.04304309791102107,0.011052140881182273,0.05290694881774532,
0.20329506738879388,0.035797486918505546,0.09405444285809011,0.02358253500384883,0.09990774676233019,0.04316350772592558,0.011063959372748585,0.052771739394001406,
0.20408918874577964,0.035667274883146485,0.0938017089980906,0.02351823152262785,0.10007324709465126,0.04328039665530754,0.011074874824471281,0.05263306574531637,
0.20488331010276895,0.03553768012343279,0.09354740338459895,0.023452527184433886,0.10023121069023042,0.043393737256368324,0.011084885850511579,0.05249104809514859,
0.2056774314597547,0.035408749512790536,0.09329147864694379,0.02338545642925322,0.10038163215726963,0.04350350324070962,0.011093991398503918,0.05234580841083203,
0.206471552816744,0.03528052917731406,0.0930338893081297,0.02331705403399906,0.10052450921830379,0.04360966948783137,0.011102190751295381,0.052197470337741636,
0.20726567417372976,0.035153064475054834,0.09277459180171128,0.02324735509963101,0.10065984273106078,0.043712212058099706,0.011109483528539668,0.052046159132367695,
0.20805979553071907,0.03502639997609403,0.09251354448710458,0.02317639503834875,0.10078763670777043,0.04381110820517696,0.011115869688144642,0.05189200159435144,
0.20885391688770483,0.03490057944340701,0.09225070766333779,0.023104209560858856,0.10090789833289845,0.04390633638790615,0.011121349527572532,0.05173512599753535,
0.20964803824469413,0.03477564581452713,0.09198604358124567,0.02303083466371347,0.10102063797928373,0.04399787628164245,0.011125923684991941,0.05157566202008151,
0.2104421596016799,0.0346516411840159,0.09171951645411318,0.022956306616719394,0.10112586922265722,0.0440857087890249,0.011129593140280808,0.051413740673712835,
0.2112362809586692,0.03452860678674506,0.09145109246677639,0.022880661950416284,0.101223608854522,0.04416981605018165,0.01113235921587956,0.05124949423213241,
0.21203040231565495,0.034406582981996024,0.09118073978318983,0.02280393744362206,0.10131387689337525,0.044250181452362446,0.01113422357749371,0.0510830561586763,
0.21282452367264426,0.03428560923838102,0.09090842855247112,0.022726170111044004,0.10139669659425275,0.044326789638992475,0.011135188234645222,0.050914561033256374,
0.21361864502963002,0.03416572411958942,0.09063413091343524,0.022647397190953673,0.10147209445657868,0.044399626518142304,0.011135255541072059,0.050744144478649535,
0.21441276638661932,0.034046965270962175,0.09035782099763295,0.02256765613292363,0.1015401002303037,0.04446867927040861,0.011134428194975274,0.05057194308619027,
0.21520688774360508,0.033929369406896184,0.09007947493090783,0.022486984585624214,0.10160074692031519,0.04453393635620135,0.011132709239113138,0.05039809434092373,
0.2160010091005944,0.03381297229908014,0.08979907083348913,0.02240542038467814,0.10165407078910486,0.044595387522433076,0.01113010206074187,0.05022273654627667,
0.21679513045758014,0.03369780876556204,0.08951658881863861,0.0223230015405708,0.10170011135767927,0.04465302380860682,0.011126610391402402,0.05004600874830375,
0.21758925181456945,0.033583912660648405,0.08923201098987014,0.022239766226614235,0.10173891140470026,0.044706837552299275,0.011122238306552961,0.04986805065956688,
0.2183833731715552,0.033471316865633975,0.08894532143676329,0.022155752766962508,0.10177051696384282,0.04475682239403679,0.011116990225047063,0.049689002582705165,
0.21917749452854451,0.03336005328036025,0.08865650622939204,0.022070999624676263,0.1017949773193597,0.04480297328156177,0.011110870908456673,0.049509005333753076,
0.21997161588553027,0.03325015281560032,0.08836555341139204,0.021985545389834295,0.10181234499984243,0.04484528647348802,0.011103885460240274,0.04932820016526424,
0.22076573724251958,0.033141645386267043,0.08807245299169017,0.021899428767689695,0.1018226757701694,0.0448837595423439,0.011096039324755747,0.04914672868929821,
0.22155985859950533,0.03303455990544045,0.08777719693492145,0.02181268856686844,0.10182602862163377,0.044918391377002743,0.0110873382861179,0.04896473280032697,
0.2223539799564911,0.03292892427921005,0.08747977915055906,0.02172536368760808,0.1018224657602441,0.04494918218450055,0.011077788466900648,0.04878235459811824,
0.2231481013134804,0.032824765402326754,0.08718019548078479,0.021637493110034208,0.1018120525931926,0.044976133491241806,0.011067396326683882,0.04859973631065195,
0.22394222267046615,0.03272210915465866,0.08687844368712763,0.02154911588247247,0.10179485771348688,0.044999248143594586,0.01105616866044517,0.04841702021712554,
0.22473634402745546,0.032620980398444174,0.08657452343589918,0.021460271109793806,0.10177095288274231,0.045018530307876954,0.011044112596796413,0.048234348571104015,
0.22553046538444121,0.032521402976335684,0.0862684362824554,0.02137099794179063,0.10174041301213382,0.0450339854697368,0.011031235596065794,0.04805186352386976,
0.22632458674143052,0.032423399710225856,0.08596018565431536,0.021281335561581828,0.10170331614150724,0.04504562043292856,0.011017545448225297,0.04786970704802652,
0.22711870809841628,0.03232699240084857,0.08564977683316746,0.021191323174044253,0.10165974341665122,0.04505344331749013,0.011003050270664234,0.04768802086141143,
0.22791282945540559,0.032232201828145624,0.08533721693579523,0.021100999994268663,0.10160977906473323,0.04505746355732452,0.010987758505809289,0.04750694635136826,
0.22870695081239134,0.03213904775238989,0.08502251489395493,0.02101040523603781,0.10155351036790229,0.0450576918971912,0.010971678918591564,0.04732662449943458,
0.22950107216938065,0.032047548916055026,0.08470568143323806,0.02091957810032475,0.10149102763506491,0.04505414038911234,0.010954820593761317,0.047147195806494686,
0.2302951935263664,0.03195772304642113,0.08438672905095236,0.020828557763809093,0.10142242417183962,0.04504682238819991,0.010937192933051001,0.04696880021844899,
0.2310893148833557,0.03186958685890565,0.08406567199305595,0.02073738336740936,0.10134779624869777,0.045035752547910195,0.010918805652187403,0.04679157705245026,
0.23188343624034147,0.03178315606110763,0.08374252623017837,0.020646094004829387,0.10126724306729894,0.04502094681473246,0.010899668777753552,0.04661566492375622,
0.23267755759733078,0.03169844535755337,0.08341730943276478,0.020554728711116785,0.10118086672503111,0.045002422422319305,0.010879792643901307,0.04644120167324656,
0.23347167895431653,0.031615468455130954,0.08309004094537785,0.02046332645123177,0.10108877217776588,0.044980197885066284,0.01085918788891542,0.04626832429565209,
0.23426580031130584,0.031534238069200374,0.08276074176019395,0.02037192610862437,0.10099106720084018,0.04495429299114908,0.010837865451630084,0.04609716886854217,
0.2350599216682916,0.03145476593036569,0.08242943448972878,0.020280566473818373,0.10088786234827785,0.044924728795026764,0.010815836567698817,0.045927870482116266,
0.2358540430252809,0.03137706279189523,0.08209614333882978,0.020189286233000335,0.10077927091026406,0.04489152760942012,0.010793112765718699,0.045760563169843664,
0.23664816438226666,0.03130113843777521,0.08176089407597116,0.020098123956612184,0.10066540886888785,0.044854712996774265,0.010769705863209994,0.04559537983999486,
0.23744228573925596,0.031227001691381897,0.08142371400388791,0.0200071180879459,0.10054639485216818,0.04481430976021502,0.010745627962452223,0.04543245220810673,
0.23823640709624172,0.031154660424756814,0.08108463192958545,0.01991630693173905,0.10042235008638023,0.04477034393400886,0.010720891446177723,0.045271910730422686,
0.23903052845323103,0.031084121568469344,0.08074367813376032,0.019825728642769932,0.10029339834669936,0.044722842773536546,0.010695508973123892,0.04511388453834749,
0.23982464981021678,0.03101539112205048,0.08040088433966812,0.019735421214451383,0.100159665906181,0.04467183474479068,0.01066949347344518,0.04495850137395562,
0.2406187711672061,0.03094847416498129,0.08005628368147427,0.01964542246742241,0.10002128148309576,0.044617349513407616,0.010642858143986004,0.04480588752659033,
0.24141289252419185,0.030883374868219123,0.07970991067212264,0.019555770038136997,0.09987837618663949,0.04455941793324439,0.010615616443415821,0.044656167770590005,
0.24220701388118115,0.03082009650624439,0.07936180117075688,0.019466501367449717,0.09973108346103905,0.0444980720345112,0.010587782087227543,0.0445094653041764,
0.2430011352381669,0.030758641469610316,0.07901199234972887,0.019377653689197846,0.09957953902807545,0.044433345011470456,0.010559369042600547,0.04436590168953869,
0.24379525659515622,0.030699011277978003,0.0786605226612279,0.01928926401878002,0.09942388082804579,0.044365271209713064,0.01053039152312953,0.04422559679414569,
0.24458937795214197,0.03064120659361842,0.0783074318035633,0.019201369141731716,0.09926424895918701,0.044293886113022915,0.010500863983420532,0.0440886687333173,
0.24538349930913128,0.030585227235363003,0.0779527606871337,0.01911400560229801,0.09910078561558461,0.044219226329840496,0.0104708011135554,0.043955233814084525,
0.24617762066611704,0.030531072192984114,0.07759655140011414,0.019027209692004412,0.09893363502359016,0.04414132957933663,0.010440217833426073,0.043825406480366993,
0.2469717420231028,0.030478739641986153,0.07723884717389255,0.018941017438226685,0.09876294337677205,0.04406023467710692,0.010409129286940072,0.043699299259494756,
0.2477658633800921,0.03042822695878829,0.07687969234828558,0.018855464592760933,0.09858885876942447,0.04397598152049812,0.010377550836098585,0.043577022710100076,
0.24855998473707785,0.030379530736279102,0.07651913233656377,0.018770586620395404,0.09841153112866008,0.04388861107357649,0.010345498054948587,0.043458685371403495,
0.24935410609406716,0.03033264679972356,0.07615721359031487,0.01868641868748578,0.0982311121451128,0.04379816535174929,0.010312986723410453,0.04334439371391723,
0.2501482274510529,0.030287570223002273,0.07579398356417315,0.01860299565053601,0.09804775520227749,0.04370468740604946,0.010280032820982618,0.043234252091587315,
0.2509423488080422,0.03024429534516291,0.07542949068044234,0.018520352044786848,0.09786161530451358,0.04360822130709404,0.010246652520324775,0.043128362695394676,
0.251736470165028,0.030202815787263384,0.07506378429363843,0.01843852207281479,0.09767284900374117,0.04350881212872654,0.010212862180721155,0.043026825508434195,
0.2525305915220173,0.030163124469486352,0.07469691465497816,0.01835753959314406,0.097481614324858,0.04340650593135313,0.010178678341425542,0.04292973826248918,
0.25332471287900304,0.03012521362850432,0.07432893287683799,0.018277438108874777,0.09728807068990665,0.04330134974498283,0.010144117714889654,0.04283719639611713,
0.25411883423599235,0.030089074835074656,0.07395989089720749,0.018198250756330664,0.09709237884102184,0.04319339155198091,0.010109197179876541,0.042749293014261766,
0.2549129555929781,0.030054699011843555,0.07358984144416018,0.01812001029372987,0.09689470076218887,0.043082680269545565,0.010073933774460855,0.04266611884940443,
0.2557070769499674,0.03002207645133791,0.0732188380003642,0.018042749089882716,0.09669519959984449,0.04296926573191676,0.010038344688917653,0.04258776222426732,
0.25650119830695317,0.029991196834124056,0.07284693476765386,0.017966499112920614,0.0964940395823524,0.04285319867232638,0.010002447258501716,0.0425143090160791,
0.2572953196639425,0.02996204924711234,0.07247418663168287,0.0178912919190604,0.09629138593838645,0.04273453070469862,0.0099662589561192,0.042445842622412376,
0.25808944102092823,0.029934622201986207,0.07210064912667873,0.01781715864140883,0.09608740481425491,0.042613314305109284,0.009929797384893684,0.04238244392860115,
0.25888356237791754,0.029908903653734897,0.07172637840031715,0.017744129978812126,0.09588226319020147,0.04248960279301218,0.00989308027062865,0.04232419127674504,
0.2596776837349033,0.029884881019268485,0.07135143117873413,0.01767223618475565,0.09567612879571778,0.042363450312241036,0.009856125454168533,0.04227116043630615,
0.2604718050918926,0.029862541196094397,0.07097586473169311,0.017601507056319195,0.09546917002390477,0.0422349118117947,0.009818950883660641,0.04222342457630292,
0.26126592644887836,0.02984187058103437,0.07059973683792306,0.017531971923193446,0.09526155584492019,0.04210404302641335,0.009781574606720219,0.04218105423910399,
0.26206004780586767,0.029822855088961025,0.07022310575064324,0.017463659636763548,0.0950534557185508,0.041970900456953245,0.009744014762501127,0.04214411731582453,
0.2628541691628534,0.02980548017153351,0.06984603016328886,0.017396598559265807,0.09484503950594979,0.041835541350567294,0.009706289573674703,0.04211267902332562,
0.26364829051984273,0.029789730835911597,0.06946856917545181,0.01733081655302394,0.09463647738057963,0.041698023680698575,0.009668417338319416,0.042086801882816695,
0.2644424118768285,0.02977559166342817,0.0690907822590494,0.017266340969771334,0.0944279397384031,0.0415584061268936,0.009630416421724155,0.04206654570005967,
0.2652365332338178,0.02976304682819991,0.06871272922473337,0.017203198640065965,0.09421959710736522,0.04141674805444195,0.009592305248107983,0.042051967547172546,
0.26603065459080355,0.029752080115656585,0.06833447018855128,0.017141415862805008,0.09401162005621128,0.041273109493848846,0.009554102292259422,0.042043121746029255,
0.26682477594779286,0.029742674940969573,0.06795606553887076,0.01708101839484608,0.09380417910268608,0.041127551120146995,0.00951582607109838,0.04204005985325155,
0.2676188973047786,0.029734814367360436,0.06757757590357735,0.017022031440742314,0.09359744462116139,0.04098013423205372,0.009477495135164028,0.04204283064678788,
0.2684130186617679,0.029728481124270966,0.06719906211755539,0.016964479642598583,0.09339158674973948,0.040830920730979645,0.009439128060032049,0.04205148011407328,
0.2692071400187537,0.0297236576253763,0.06682058519046143,0.016908387070056284,0.09318677529688212,0.0406799730998946,0.009400743437664788,0.04206605144176354,
0.27000126137573943,0.029720325986423428,0.06644220627479878,0.01685377721041422,0.09298317964761522,0.04052735438205645,0.009362359867698062,0.04208658500703621,
0.27079538273272874,0.02971846804287743,0.06606398663430083,0.016800672958893176,0.09278096866936061,0.04037312815960854,0.009323995948668418,0.04211311837045012,
0.2715895040897145,0.02971806536735867,0.06568598761263111,0.016749096609051918,0.09258031061744747,0.04021735853205117,0.009285670269184892,0.042145686270354886,
0.2723836254467038,0.029719099286854397,0.06530827060240693,0.016699069843362366,0.09238137304035739,0.040060110094592524,0.009247401399049364,0.04218432061884088,
0.27317774680368956,0.02972155089968898,0.06493089701455323,0.016650613723951685,0.0921843226847579,0.039901447916384364,0.009209207880329801,0.04222905049921966,
0.27397186816067887,0.029725401092237314,0.06455392824799305,0.01660374868351919,0.09198932540038027,0.03974143751864779,0.009171108218390882,0.04227990216502454,
0.2747659895176646,0.029730630555366563,0.06417742565968017,0.01655849451643591,0.09179654604479896,0.03958014485269411,0.009133120872886553,0.042336899040520515,
0.27556011087465393,0.02973721980059205,0.06380145053497938,0.016514870370034684,0.09160614838817058,0.03941763627784627,0.009095264248719285,0.042400061722712386,
0.2763542322316397,0.029745149175933686,0.06342606405839954,0.016472894736098555,0.0914182950179921,0.03925397853926588,0.009057556686970874,0.04246940798483914,
0.277148353588629,0.02975439888145987,0.06305132728468378,0.01643258544255545,0.09123314724393826,0.039089238745690674,0.009020016455809821,0.04254495278134282,
0.27794247494561475,0.029764948984506438,0.06267730111026151,0.016393959645386827,0.09105086500283933,0.03892348434708792,0.008982661741380472,0.042626708254299345,
0.27873659630260406,0.029776779434558753,0.062304046245065844,0.01635703382075806,0.09087160676386162,0.038756783112228486,0.00894551063867913,0.04271468374129857,
0.2795307176595898,0.0297898700777859,0.061931623184720584,0.01632182375737818,0.09069552943395333,0.03858920310618686,0.008908581142422555,0.04280888578476018,
0.2803248390165791,0.029804200671216415,0.06156009218309976,0.016288344549096598,0.0905227882636196,0.03842081266777196,0.008871891137914305,0.04290931814267183,
0.2811189603735649,0.029819750896545545,0.06118951322526339,0.016256610587744278,0.09035353675309152,0.03825168038689377,0.008835458391914535,0.04301598180073519,
0.2819130817305542,0.02983650037356487,0.060819946000772306,0.016226635556226807,0.09018792655895339,0.038081875081870595,0.008799300543518913,0.043128874985905646,
0.28270720308753994,0.02985442867320553,0.060451449877385086,0.01619843242187657,0.09002610740129485,0.0379114657766819,0.008763435095052407,0.043247993181309966,
0.28350132444452925,0.029873515330187294,0.06008408387513977,0.016172013430071252,0.08986822697145337,0.037740521678171345,0.008727879402983814,0.0433733291425266,
0.284295445801515,0.02989373985526604,0.05971790664082299,0.016147390098125696,0.08971443084041418,0.03756911215320492,0.008692650668866937,0.043504872915211934,
0.2850895671585043,0.029915081747073226,0.0593529764228291,0.016124573209464074,0.08956486236793447,0.037397306705788905,0.008657765930314422,0.04364261185405611,
0.28588368851549006,0.029937520503541308,0.058989351046412,0.016103572808079017,0.0894196626124596,0.0372251749541522,0.008623242052010297,0.043786530643050534,
0.28667780987247937,0.02996103563290999,0.058627087889332304,0.016084398193284378,0.08927897024189872,0.03705278660779775,0.008589095716767324,0.0439366113170491,
0.2874719312294651,0.029985606664308592,0.05826624385790243,0.016067057914768045,0.0891429214453279,0.03688021144452754,0.00855534341663534,0.04409283328460454,
0.28826605258645444,0.03001121315791089,0.05790687536343247,0.01605155976795105,0.08901164984568863,0.036707519287446005,0.00852200144406675,0.044255173352060466,
0.2890601739434402,0.030037834714659258,0.05754903829907989,0.016037910789659146,0.08888528641354992,0.03653477998194608,0.008489085883145444,0.044423605748879255,
0.2898542953004295,0.030065450985555863,0.0571927880171061,0.016026117254112664,0.08876395938200164,0.03636206337268293,0.008456612600885422,0.044598102154185214,
0.29064841665741525,0.030094041680519153,0.05683817930654338,0.01601618466924048,0.08864779416274686,0.0361894392805397,0.008424597238605315,0.044778631724501916,
0.29144253801440456,0.03012358657680466,0.05648526637127575,0.016008117773323498,0.08853691326346047,0.03601697747958994,0.008393055203385201,0.04496516112266203,
0.2922366593713903,0.030154065526989852,0.056134102808537846,0.016001920531973055,0.08843143620648099,0.03584474767406153,0.008362001659611974,0.0451576545478672,
0.2930307807283761,0.030185458466523377,0.055784741587835605,0.015997596135449165,0.08833147944890211,0.035672819475306566,0.008331451520619555,0.04535607376687528,
0.2938249020853654,0.030217745420839933,0.05543723503029361,0.015995146996323657,0.08823715630412966,0.03550126237878192,0.00830141944043029,0.04556037814629118,
0.29461902344235114,0.03025090651204244,0.055091634788433055,0.015994574747492784,0.0881485768649693,0.03533014574104539,0.008271919805603769,0.04577052468593766,
0.29541314479934044,0.03028492196515383,0.05474799182638544,0.01599588024054367,0.08806584792830925,0.03515953875677177,0.008242966727199348,0.04598646805328138,
0.2962072661563262,0.03031977211394154,0.054406356400546856,0.01599906354447884,0.08798907292146184,0.03498951043579372,0.008214574032858636,0.046208160618889334,
0.2970013875133155,0.030355437406318322,0.054066778040677534,0.01600412394480273,0.08791835183022649,0.03482012958017212,0.008186755259014142,0.04643555249289002,
0.29779550887030126,0.03039189840932357,0.05372930553145202,0.01601105994297387,0.08785378112873607,0.03465146476130039,0.00815952364323028,0.04666859156241358,
0.29858963022729057,0.03042913581369003,0.05339398689446482,0.01601986925622616,0.0877954537111471,0.03448358429704765,0.00813289211668288,0.04690722352998435,
0.2993837515842763,0.030467130438001245,0.05306086937069703,0.01603054881776242,0.08774345882523386,0.03431655622894511,0.008106873296783262,0.0471513919528388,
0.30017787294126563,0.030505863232445737,0.05272999940344898,0.016043094777323047,0.08769788200794491,0.0341504482994205,0.00808147947995299,0.04740103828314222,
0.3009719942982514,0.030545315282174246,0.052401422621744485,0.016057502502132448,0.08765880502297928,0.03398532792908509,0.00805672263455522,0.047656101909075946,
0.3017661156552407,0.030585467810267025,0.052075183824211654,0.016073766578225453,0.08762630580043865,0.03382126219407789,0.008032614393988655,0.047916520196767676,
0.30256023701222645,0.03062630218031871,0.05175132696344604,0.016091880812155755,0.08760045837861027,0.03365831780347174,0.008009166049949909,0.04818222853303645,
0.30335435836921576,0.030667799898648505,0.05142989513086128,0.016111838233088014,0.08758133284793411,0.033496561076745666,0.00798638854587014,0.04845316036892395,
0.3041484797262015,0.03070994261614411,0.05111093054203268,0.016133631095275134,0.08756899529720615,0.033336057921328405,0.007964292470531651,0.048729247263983554,
0.3049426010831908,0.030752712129747988,0.050794474522539046,0.016157250880921632,0.08756350776206885,0.033176873810217535,0.007942888051870125,0.049010418931298066,
0.3057367224401766,0.030796090383595143,0.050480567494308286,0.01618268830343389,0.08756492817583746,0.03301907375967907,0.007922185150968064,0.049296603283197175,
0.3065308437971659,0.03084005946981167,0.05016924896247219,0.01620993331105771,0.08757331032270943,0.032862722307032154,0.007902193256244963,0.049587726477645346,
0.30732496515415164,0.030884601628983932,0.04986055750273544,0.01623897509090321,0.0875887037934032,0.03270788348852356,0.007882921477849596,0.04988371296527069,
0.30811908651114095,0.03092969925030838,0.04955453074926423,0.0162698020733568,0.08761115394326979,0.03255462081729695,0.007864378542259774,0.050184485537005524,
0.3089132078681267,0.03097533487143239,0.049251205383099385,0.016302401936879613,0.08764070185292012,0.03240299726146184,0.007846572787094754,0.0504899653723087,
0.309707329225116,0.031021491177996578,0.0489506171210991,0.016336761613191503,0.0876773842914077,0.03225307522226732,0.007829512156145461,0.05080007208794008,
0.31050145058210177,0.031068151002889465,0.048652800705416076,0.016372867292839224,0.08772123368200598,0.032104916512385465,0.007813204194627488,0.051114723787257114,
0.3112955719390911,0.031115297325225538,0.04835778989351379,0.016410704431147304,0.08777227807061713,0.031958582334309836,0.007797656044661806,0.05143383711000346,
0.31208969329607683,0.031162913269057686,0.04806561744872619,0.016450257754549523,0.08783054109684699,0.031814133258874215,0.007782874440987966,0.05175732728255941,
0.31288381465306614,0.031210982101835563,0.04777631513136504,0.016491511267298857,0.08789604196777905,0.0316716292038971,0.007768865706914425,0.05208510816862414,
0.3136779360100519,0.03125948723262105,0.04748991369037865,0.016534448258553113,0.08796879543447861,0.031531129412957534,0.007755635750510537,0.05241709232029916,
0.3144720573670412,0.03130841221007253,0.047206442855566015,0.016579051309833486,0.08804881177125615,0.031392692434307805,0.007743190061044612,0.05275319102954285,
0.31526617872402696,0.031357740720209686,0.04692593133034935,0.01662530230285269,0.08813609675771696,0.03125637609992924,0.007731533705672272,0.05309331437996513,
0.31606030008101627,0.03140745658397029,0.04664840678510823,0.01667318242770907,0.08823065166362201,0.03112223750473681,0.00772067132637922,0.05343737129893212,
0.316854421438002,0.031457543754570785,0.046373895851077936,0.016722672191442946,0.08833247323658318,0.030990332985938788,0.007710607137182389,0.05378526960995021,
0.3176485427949878,0.03150798631468232,0.046102424114814466,0.01677375142695085,0.08844155369261328,0.030860718102558048,0.007701344921593234,0.05413691608529882,
0.3184426641519771,0.03155876847343408,0.04583401611322822,0.016826399302253384,0.0885578807095501,0.03073344761512114,0.007692888030346846,0.05449221649888109,
0.31923678550896284,0.03160987456325569,0.04556869532918755,0.01688059433011186,0.08868143742337108,0.030608575465522012,0.007685239379400362,0.05485107567926235,
0.32003090686595215,0.03166128903657025,0.04530648418769401,0.01693631437798877,0.08881220242741339,0.030486154757067188,0.0076784014482039736,0.05521339756286553,
0.3208250282229379,0.03171299646234978,0.04504740405262967,0.016993536678346844,0.08895014977451221,0.03036623773470942,0.0076723762782476765,0.0555790852472932,
0.3216191495799272,0.0317649815225447,0.04479147522407725,0.01705223783928118,0.08909524898206742,0.030248875765477003,0.007667165471886728,0.05594804104474594,
0.32241327093691297,0.03181722900839903,0.04453871693621291,0.01711239385547868,0.08924746504004752,0.030134119319106173,0.007662770191448595,0.056320166535506797,
0.3232073922939023,0.03186972381666252,0.044289147355771614,0.0171739801194989,0.08940675842193699,0.030022017948884126,0.007659191158624006,0.056695362621461826,
0.32400151365088803,0.03192245094571149,0.04404278358108389,0.017236971433369944,0.08957308509863096,0.029912620272710275,0.007656428654144541,0.05707352957962688,
0.32479563500787734,0.03197539549158953,0.043799641641683214,0.017301342020493188,0.08974639655527966,0.029805973954383704,0.0076544825177489555,0.05745456711565067,
0.3255897563648631,0.0320285426439792,0.043559736498482104,0.017367065537850012,0.08992663981108213,0.029702125685124894,0.00765335214844027,0.05783837441726492,
0.3263838777218524,0.032081877682116004,0.04332308204451512,0.01743411508850381,0.09011375744202667,0.029601121165339875,0.007653036505035443,0.05822485020765194,
0.32717799907883816,0.032135385970655427,0.04308969110624618,0.017502463234390184,0.09030768760657301,0.02950300508663519,0.007653534107009213,0.058613892798700516,
0.32797212043582746,0.03218905295550407,0.04285957544543745,0.017572082009388187,0.09050836407426921,0.029407821114092226,0.007654843035633475,0.05900540014412128,
0.3287662417928132,0.03224286415962546,0.04263274576157635,0.017642942932665013,0.09071571625729369,0.02931561186880949,0.007656960935413322,0.05939926989239256,
0.3295603631498025,0.032296805178831274,0.042409211694857236,0.017715017022286717,0.09092966924491026,0.029226418910721606,0.007659885015820699,0.05979539943950813,
0.3303544845067883,0.03235086167756828,0.042188981829713194,0.01778827480908705,0.09115014384082168,0.02914028272170375,0.007663612053326272,0.0601936859814984,
0.3311486058637776,0.03240501938471154,0.04197206369889388,0.01786268635078653,0.09137705660340496,0.02905724268897055,0.00766813839373002,0.06059402656669682,
0.33194272722076335,0.03245926408937382,0.041758463788084,0.017938221246353598,0.09161031988880934,0.028977337088778376,0.007673459954790696,0.060996318147723806,
0.33273684857775265,0.03251358163674151,0.041548187541057435,0.018014848650599515,0.09184984189689481,0.028900603070439998,0.0076795722291541245,0.06140045763316017,
0.3335309699347384,0.03256795792394671,0.04134123936536107,0.018092537288998622,0.09209552671998683,0.028827076640660806,0.007686470287579992,0.061806341938882924,
0.3343250912917277,0.03262237889598553,0.04113762263852218,0.018171255472725304,0.09234727439442104,0.028756792648205715,0.00769414878246661,0.06221386803903617,
0.33511921264871347,0.03267683054169201,0.04093733971477296,0.01825097111389884,0.09260498095484784,0.02868978476890592,0.007702601951672825,0.06262293301661033,
0.3359133340057028,0.032731298889777334,0.04074039193228507,0.01833165174102736,0.09286853849126633,0.028626085491014686,0.007711823622636031,0.06303343411360332,
0.33670745536268853,0.03278577000494376,0.04054677962090713,0.01841326451464165,0.09313783520875256,0.0285657261009214,0.007721807216784969,0.06344526878073743,
0.33750157671967784,0.03284022998408234,0.04035650211039754,0.018495776243109767,0.09341275548984616,0.02850873666923318,0.0077325457542457435,0.06385833472670645,
0.3382956980766636,0.03289466495256389,0.04016955773914478,0.01857915339862293,0.09369317995955637,0.02845514603723347,0.007744031858839256,0.06427252996692724,
0.3390898194336529,0.032949061060631966,0.03998594386336696,0.018663362133343363,0.09397898555294586,0.028404981803726855,0.007756257763367999,0.06468775287177168,
0.33988394079063866,0.03300340447990689,0.039805656866782085,0.018748368295704358,0.09427004558524979,0.02835827031227943,0.007769215315189904,0.06510390221425373,
0.3406780621476244,0.03305768140000948,0.03962869217074038,0.018834137446852788,0.094566229824484,0.02831503663886421,0.007782895982076662,0.06552087721714812,
0.3414721835046137,0.03311187802531326,0.039455044244809334,0.01892063487722437,0.09486740456649496,0.028275304579920914,0.00779729085835374,0.06593857759951725,
0.3422663048615995,0.033165980571833585,0.039284706617802555,0.019007825623241503,0.09517343271240179,0.028239096640839595,0.007812390671319019,0.06635690362262284,
0.3430604262185888,0.03321997526426215,0.03911767188924241,0.019095674484123797,0.09548417384837829,0.028206434024877398,0.00782818578793679,0.06677575613520062,
0.34385454757557454,0.033273848333155026,0.0389539317412467,0.01918414603880095,0.0957994843277221,0.028177336622517847,0.007844666221803513,0.06719503661807581,
0.34464866893256385,0.033327586012282195,0.038793476950829305,0.019273204662917938,0.09611921735515536,0.02815182300128188,0.00786182164038159,0.06761464722809828,
0.3454427902895496,0.033381174536146564,0.03863629740260432,0.019362814545921904,0.09644322307329994,0.028129910395999977,0.007879641372497097,0.06803449084137705,
0.3462369116465389,0.03343460013768015,0.03848238210188312,0.019452939708220554,0.09677134865126893,0.02811161469955443,0.007898114416097233,0.0684544710957939,
0.34703103300352467,0.03348784904612502,0.038331719188153576,0.019543544018401613,0.09710343837531425,0.02809695045410078,0.007917229446262945,0.06887449243277681,
0.347825154360514,0.03354090748510607,0.03818429594893028,0.019634591210502678,0.09743933374146858,0.028085930842777503,0.007936974823471978,0.06929446013831467,
0.34861927571749973,0.033593761670902944,0.038040098833964926,0.019726044901321196,0.09777887355011926,0.02807856768191249,0.007957338602107398,0.06971428038319497,
0.34941339707448904,0.03364639781092794,0.03789911346980514,0.019817868607753815,0.09812189400244993,0.028074871413735228,0.007978308539206329,0.0701338602624475,
0.3502075184314748,0.03369880210241631,0.03776132467469043,0.019910025764154654,0.09846822879868515,0.028074851099602924,0.007999872103443478,0.070553107833977,
0.3510016397884641,0.03375096073133574,0.03762671647377356,0.020002479739701918,0.09881770923807158,0.02807851441374911,0.008022016484343772,0.07097193215636903,
0.35179576114544986,0.033802859871520916,0.03749527211465571,0.020095193855762326,0.0991701643205291,0.028085867637562777,0.00804472860171816,0.07139024332585325,
0.35258988250243917,0.033854485684039336,0.03736697408322333,0.020188131403242857,0.09952542084990398,0.028096915654406012,0.008067995115316516,0.07180795251241019,
0.3533840038594249,0.033905824316793974,0.03724180411977497,0.020281255659919287,0.09988330353875578,0.02811166194497786,0.008091802434691216,0.07222497199500687,
0.35417812521641423,0.033956861904368335,0.037119743235425745,0.02037452990773117,0.10024363511460851,0.028130108583231984,0.008116136729264882,0.07264121519594852,
0.3549722465734,0.03400758456811898,0.0370007717287772,0.020467917450032822,0.10060623642759724,0.0281522562328556,0.008140983938595513,0.0730565967143336,
0.3557663679303893,0.03405797841652044,0.036884869202840405,0.02056138162879003,0.1009709265594388,0.028178104144316783,0.008166329782831971,0.07347103235860061,
0.35656048928737505,0.03410802954576703,0.036772014582199475,0.0206548858417123,0.10133752293365701,0.02820765015248716,0.008192159773352654,0.07388443917815575,
0.35735461064436436,0.03415772404063577,0.03666218613040331,0.020748393559310463,0.10170584142699056,0.028240890674846756,0.008218459223579963,0.07429673549407087,
0.3581487320013501,0.03420704797561442,0.036555361467572475,0.020841868341869695,0.10207569648191353,0.028277820710277696,0.008245213259962974,0.07470784092884308,
0.3589428533583394,0.034255987416297956,0.03645151758820859,0.020935273856327964,0.10244690122019606,0.02831843383845311,0.008272406833120523,0.07511767643520671,
0.3597369747153252,0.03430452842105704,0.03635063087919321,0.02102857389305022,0.10281926755743444,0.028362722219827503,0.00830002472913677,0.07552616432399022,
0.3605310960723145,0.03435265704298114,0.03625267713796343,0.021121732382488524,0.10319260631847883,0.028410676596234717,0.008328051581001097,0.0759332282910114,
0.36132521742930024,0.034400359332098826,0.036157631590850885,0.021214713411718867,0.10356672735368742,0.02846228629209922,0.008356471880184077,0.07633879344300488,
0.36211933878628955,0.034447621337877515,0.03606546891157131,0.02130748124084518,0.1039414396559348,0.028517539216266572,0.008385269988341,0.07674278632257665,
0.3629134601432753,0.0344944291120044,0.035976163239851394,0.021400000319261574,0.10431655147830358,0.028576421864458364,0.008414430149134391,0.07714513493218222,
0.36370758150026106,0.03454076871145008,0.035889688200179626,0.021492235301763758,0.10469187045238773,0.028638919322357105,0.008443936500166754,0.07754576875712461,
0.36450170285725036,0.03458662620181604,0.03580601692066814,0.02158415106450101,0.10506720370713678,0.028705015269326003,0.008473773085014619,0.07794461878757053,
0.3652958242142361,0.034631987660966555,0.035725122052012045,0.02167571272076021,0.1054423579881697,0.02877469198276871,0.008503923865354856,0.07834161753958307,
0.36608994557122543,0.03467683918294566,0.035646975786533204,0.02176688563657367,0.10581713977748819,0.028847930343133554,0.008534372733174122,0.07873669907517115,
0.3668840669282112,0.034721166882179015,0.03557154987729485,0.021857635446142776,0.10619135541351832,0.02892470983956685,0.008565103523052165,0.07912979902135625,
0.3676781882852005,0.03476495689796057,0.03549881565727398,0.02194792806706971,0.10656481121141106,0.029005008576219488,0.008596100024509591,0.07952085458825775,
0.36847230964218625,0.034808195399222974,0.03542874405857818,0.02203772971538971,0.10693731358353205,0.029088803279210915,0.008627345994410644,0.07990980458619994,
0.36926643099917555,0.034850868589590814,0.035361305631693506,0.022127006920396732,0.10730866916007067,0.02917606930425438,0.00865882516941146,0.08029658944184388,
0.3700605523561613,0.03489296271271496,0.03529647056475028,0.0222157265392555,0.1076786849097001,0.029266780644946977,0.008690521278444139,0.08068115121334854,
0.3708546737131506,0.03493446405788605,0.03523420870279351,0.02230385577139327,0.1080471682602195,0.02936090994172795,0.008722418055226926,0.0810634336045661,
0.3716487950701364,0.03497535896592476,0.035174489567044866,0.022391362172664988,0.10841392721911022,0.029458428491508256,0.00875449925079083,0.08144338197827732,
0.3724429164271257,0.035015633835345984,0.03511728237414318,0.022478213669285648,0.10877877049393797,0.029559306257974385,0.008786748646012794,0.08182094336847409,
0.37323703778411144,0.03505527512879351,0.035062556055350365,0.022564378571524248,0.10914150761253433,0.029663511882568976,0.008819150064145721,0.08219606649169627,
0.37403115914110074,0.035094269379741534,0.03501027927570995,0.02264982558715363,0.10950194904289011,0.029771012696150536,0.008851687383335447,0.08256870175743125,
0.3748252804980865,0.03513260319945873,0.034960420453145374,0.022734523834651195,0.10985990631269396,0.029881774731334233,0.008884344549114843,0.08293880127758509,
0.3756194018550758,0.03517026328423019,0.03491294777748529,0.022818442856145572,0.1102151921284505,0.029995762735515474,0.00891710558686524,0.08330631887503456,
0.37641352321206156,0.035207236422832126,0.03486782922940327,0.022901552630104703,0.11056762049411208,0.030112940184577535,0.008949954614235324,0.0836712100912702,
0.37720764456905087,0.035243509504253666,0.03482503259925939,0.022983823583761043,0.1109170068291589,0.030233269297284406,0.00898287585350773,0.08403343219314083,
0.3780017659260366,0.03527906952565973,0.03478452550583131,0.0230652266052699,0.11126316808606332,0.030356711050359485,0.009015853643903608,0.08439294417871106,
0.37879588728302593,0.03531390360058859,0.034746275414922694,0.02314573305559734,0.11160592286707315,0.030483225194250427,0.00904887245381547,0.08474970678224297,
0.3795900086400117,0.03534799896737707,0.034710249657836735,0.023225314780134097,0.11194509154025103,0.030612770269580234,0.00908191689295862,0.08510368247831405,
0.380384129997001,0.035381342997806126,0.03467641544970291,0.023303944120032668,0.11228049635470619,0.03074530362428421,0.009114971724431693,0.08545483548508398,
0.38117825135398675,0.03541392320595906,0.034644739907645154,0.023381593923264526,0.1126119615549555,0.03088078143143187,0.009148021876676796,0.08580313176672293,
0.38197237271097606,0.03544572725728419,0.03461519006877979,0.023458237555395,0.11293931349435223,0.031019158707732856,0.009181052455329866,0.08614853903501446,
0.3827664940679618,0.03547674297785357,0.03458773290803182,0.02353384891007356,0.11326238074751964,0.031160389332725254,0.009214048754951966,0.08649102675014661,
0.3835606154249511,0.03550695836380871,0.03456233535575837,0.02360840241923731,0.11358099422172915,0.03130442606864439,0.009246996270632373,0.08683056612070429,
0.3843547367819369,0.0355363615909842,0.03453896431516821,0.023681873063025903,0.11389498726716121,0.03145122058096972,0.009279880709454317,0.08716713010287748,
0.3851488581389262,0.03556494102469948,0.03451758667952648,0.023754236379406185,0.11420419578598871,0.03160072345964705,0.009312688001814456,0.08750069339889852,
0.38594297949591194,0.035592685229709015,0.03449816934913419,0.023825468473505147,0.11450845834022243,0.03175288424098291,0.009345404312587222,0.08783123245472353,
0.3867371008528977,0.035619582980300504,0.03448067924807188,0.023895546026649818,0.11480761625825887,0.031907651430207275,0.00937801605212535,0.0881587254569715,
0.387531222209887,0.035645623270530634,0.034465083340697485,0.023964446305113036,0.11510151374007078,0.032064972524700475,0.009410509887088003,0.08848315232913523,
0.38832534356687276,0.0356707953245876,0.0344513486478882,0.0240321471685641,0.1153899979609815,0.03222479403787981,0.00944287275108801,0.0888044947270788,
0.38911946492386207,0.035695088607269054,0.03443944226301692,0.024098627078223498,0.11567291917396369,0.032387061523740504,0.009475091855149935,0.08912273603383529,
0.3899135862808478,0.03571849283456435,0.03442933136765345,0.02416386510472105,0.1159501308104041,0.03255171960204532,0.009507154697970801,0.0894378613537195,
0.39070770763783713,0.03574099798432936,0.034420983246981424,0.02422784093565689,0.11622148957927572,0.03271871198415682,0.009539049075975367,0.08974985750576944,
0.3915018289948229,0.03576259430704201,0.03441436530492188,0.024290534882864923,0.11648685556465889,0.03288798149950519,0.009570763093158142,0.09005871301653037,
0.3922959503518122,0.03578327233662671,0.0344094450789546,0.024351927889378344,0.11674609232155345,0.03305947012268445,0.009602285170704302,0.09036441811219552,
0.39309007170879795,0.035803022901334934,0.03440619025462873,0.024412001536097114,0.11699906696992364,0.03323311900116928,0.009633604056381905,0.09066696471011679,
0.39388419306578726,0.03582183713467001,0.03440456867975437,0.02447073804815724,0.11724565028691823,0.03340886848364369,0.009664708833697909,0.09096634640969843,
0.394678314422773,0.03583970648634313,0.0344045483782671,0.024528120301001932,0.1174857167972077,0.03358665814893269,0.009695588930810656,0.09126255848268722,
0.3954724357797623,0.03585662273324792,0.03440609756375778,0.024584131826154598,0.11771914486138046,0.03376642683552708,0.009726234129191592,0.09155559786287136,
0.3962665571367481,0.035872577990440656,0.03440918465265991,0.02463875681669395,0.1179458167623408,0.033948112671691136,0.00975663457202918,0.09184546313520058,
0.3970606784937374,0.03588756472211305,0.03441377827708746,0.024691980132431325,0.1181656187896507,0.03413165310614237,0.00978678077236807,0.09213215452433894,
0.39785479985072314,0.03590157575254447,0.03441984729731639,0.024743787304790568,0.11837844132175801,0.03431698493929207,0.009816663620976768,0.09241567388266195,
0.39864892120771245,0.03591460427702041,0.03442736081390298,0.024794164541390853,0.11858417890605369,0.03450404435503437,0.009846274393937112,0.0926960246777085,
0.3994430425646982,0.03592664387270384,0.03443628817943314,0.02484309873033289,0.11878273033670164,0.034692766953071434,0.009875604759949126,0.09297321197909866,
0.4002371639216875,0.03593768850944635,0.0344465990098965,0.024890577444188912,0.11897399873018334,0.03488308778176136,0.009904646787344911,0.09324724244492681,
0.40103128527867327,0.035947732560525594,0.03445826319567988,0.02493658894369715,0.11915789159850121,0.035074941371475314,0.00993339295080539,0.09351812430763994,
0.4018254066356626,0.03595677081329609,0.03447125091217489,0.024981122181161133,0.11933432091998408,0.03526826176844943,0.009961836137773886,0.09378586735941005,
0.40261952799264833,0.035964798479739754,0.03448553262999503,0.02502416680355465,0.11950320320763942,0.035462982569116924,0.00998996965456069,0.0940504829370093,
0.40341364934963764,0.035971811206903404,0.034501079124797544,0.02506571315533298,0.11966445957499658,0.035659036954904896,0.010017787232132931,0.09431198390619559,
0.4042077707066234,0.035977805087209935,0.034517861486706485,0.02510575228095107,0.11981801579938628,0.035856357727480075,0.01004528303158423,0.09457038464561723,
0.4050018920636127,0.0359827766686302,0.03453585112933292,0.025144275927089562,0.11996380238260236,0.03605487734442722,0.010072451649278828,0.09482570103024292,
0.40579601342059846,0.035986722964702816,0.03455501979838934,0.025181276544589314,0.12010175460889232,0.036254527955343396,0.010099288121664966,0.09507795041432446,
0.40659013477758776,0.035989641464388884,0.034575339579895024,0.025216747290095445,0.12023181260022353,0.0364552414383306,0.010125787929752654,0.09532715161389878,
0.4073842561345735,0.035991530141749106,0.034596782907970136,0.025250682027411677,0.1203539213687742,0.036656949436869174,0.010151947003250984,0.09557332488883513,
0.4081783774915628,0.03599238746543038,0.03461932257221619,0.025283075328565854,0.12046803086659744,0.036859583397053454,0.010177761724360504,0.09581649192443346,
0.4089724988485486,0.03599221240794963,0.03464293172468105,0.02531392247458777,0.12057409603240869,0.037063074605171026,0.010203228931216253,0.09605667581257928,
0.4097666202055379,0.035991004454762075,0.034667583886406964,0.02534321945600017,0.12067207683544787,0.03726735422560636,0.010228345920977369,0.09629390103246042,
0.41056074156252365,0.03598876361310212,0.03469325295356058,0.02537096297302384,0.12076193831636886,0.03747235333904897,0.010253110452559343,0.09652819343085073,
0.4113548629195094,0.03598549042058401,0.03471991320314406,0.02539715043549796,0.1208436506251095,0.037678002980986024,0.010277520749005255,0.09675958020196533,
0.4121489842764987,0.03598118595355065,0.034747539298286625,0.02542177996251661,0.12091718905569733,0.03788423418045874,0.010301575499492514,0.09698808986689221,
0.41294310563348446,0.035975851835158223,0.03477610629311651,0.025444850381782503,0.12098253407794679,0.0380909779990615,0.010325273860971944,0.09721375225260431,
0.41373722699047377,0.03596949024318489,0.03480558963721335,0.025466361228679128,0.12103967136600596,0.03829816557016201,0.010348615459436276,0.09743659847055644,
0.4145313483474595,0.03596210391755183,0.03483596517964131,0.02548631274506217,0.12108859182371202,0.038505728138320594,0.010371600390815354,0.09765666089487131,
0.41532546970444884,0.03595369616754493,0.034867209172563945,0.025504705877771514,0.12112929160671619,0.038713597098886186,0.010394229221495627,0.0978739731401188,
0.4161195910614346,0.03594427087872559,0.03489929827444173,0.025521542276864796,0.12116177214134011,0.03892170403774623,0.010416502988461826,0.09808857003869247,
0.4169137124184239,0.035933832519519315,0.03493220955281382,0.02553682429357375,0.12118604014012783,0.0391299807712071,0.010438423199058926,0.09830048761778698,
0.41770783377540965,0.03592238614747091,0.03496592048666571,0.025550554977984294,0.12120210761405945,0.03933835938598171,0.010459991830372892,0.09850976307598128,
0.41850195513239896,0.0359099374151552,0.03500040896838461,0.025562738076441525,0.12120999188139386,0.03954677227926025,0.010481211328228887,0.09871643475943052,
0.4192960764893847,0.03589649257573235,0.035035653305305364,0.025573378028680805,0.12120971557311078,0.03975515219883979,0.010502084605806015,0.09892054213767214,
0.420090197846374,0.03588205848813727,0.035071632220849275,0.025582479964685805,0.1212013066349235,0.039963432283288226,0.010522615041867824,0.09912212577904918,
0.4208843192033598,0.03586664262189236,0.03510832485525915,0.025590049701274833,0.12118479832583595,0.0401715461021177,0.010542806478608314,0.09932122732575605,
0.4216784405603491,0.035850253061533714,0.035145710765933716,0.02559609373841634,0.12116022921322042,0.040379427695942584,0.010562663219113328,0.09951788946851127,
0.42247256191733484,0.03583289851064022,0.035183769927365174,0.02560061925527489,0.12112764316439423,0.04058701161659662,0.010582190024437688,0.09971215592086219,
0.42326668327432415,0.03581458829545619,0.03522248273068388,0.025603634105988576,0.12108708933467667,0.04079423296718385,0.01060139211029857,0.09990407139312683,
0.4240608046313099,0.03579533236809754,0.035261829982814435,0.025605146815178986,0.1210386221519083,0.0410010274420378,0.010620275143386083,0.10009368156597861,
0.4248549259882992,0.035775141309332244,0.035301792905247625,0.025605166573194945,0.12098230129741905,0.041207331366563245,0.01063884523729228,0.10028103306367955,
0.42564904734528497,0.03575402633092591,0.03534235313243323,0.025603703231090937,0.12091819168343293,0.041413081736934934,0.010657108948060193,0.1004661734269688,
0.4264431687022743,0.03573199927754333,0.03538349270979867,0.025600767295341432,0.12084636342690021,0.041618216259627555,0.010675073269354763,0.10064915108561306,
0.42723729005926003,0.03570907262819729,0.0354251940913988,0.025596369922292153,0.12076689181974945,0.04182267339075104,0.010692745627257926,0.10083001533062576,
0.42803141141624934,0.03568525949723607,0.03546744013720257,0.02559052291234939,0.12067985729555578,0.042026392375165485,0.010710133874690407,0.10100881628616303,
0.4288255327732351,0.035660573634861185,0.03551021411002213,0.025583238703908398,0.12058534539262376,0.04222931328534982,0.010727246285463113,0.10118560488110412,
0.4296196541302244,0.035635029427167265,0.03555349967209066,0.025574530367021998,0.12048344671348586,0.04243137705999849,0.01074409154796134,0.10136043282032495,
0.43041377548721016,0.035608641895695986,0.035597280881295094,0.02556441159681034,0.12037425688081965,0.04263252554232057,0.010760678758465347,0.1015333525556734,
0.43120789684419947,0.03558142669649654,0.03564154218707016,0.02555289670661292,0.12025787648979083,0.042832701518015305,0.01077701741411121,0.10170441725665597,
0.4320020182011852,0.03555340011868493,0.035686268425960434,0.02554000062088379,0.12013441105683102,0.04303184875289888,0.010793117405496185,0.1018736807808455,
0.43279613955817453,0.03552457908249483,0.035731444816857146,0.025525738867831195,0.12000397096486248,0.04322991203015663,0.01080898900893309,0.10204119764402057,
0.4335902609151603,0.0354949811368131,0.03577705695591698,0.025510127571802457,0.11986667140498429,0.04342683718719543,0.01082464287835864,0.10220702299004725,
0.43438438227214604,0.035464624456193056,0.035823090811169925,0.02549318344541528,0.11972263231463803,0.043622571152071,0.010840090036900825,0.10237121256051405,
0.43517850362913535,0.03543352783733912,0.0358695327168236,0.02547492378143655,0.11957197831227304,0.04381706197946516,0.010855341868110931,0.10253382266413223,
0.4359726249861211,0.03540171069505639,0.03591636936727169,0.025455366444409627,0.11941483862853446,0.044010258886187856,0.010870410106865883,0.10269491014591413,
0.4367667463431104,0.035369193057659384,0.03596358781081427,0.025434529862031187,0.11925134703399949,0.04420211228617932,0.010885306829947077,0.1028545323561411,
0.43756086770009617,0.035335995561834185,0.036011175443097905,0.025412433016278813,0.11908164176349116,0.0443925738249877,0.010900044446302057,0.10301274711913505,
0.4383549890570855,0.03530213944694859,0.03605912000028371,0.025389095434290375,0.11890586543700003,0.04458159641369764,0.010914635686995685,0.10316961270184574,
0.43914911041407123,0.03526764654880526,0.03610740955195162,0.02536453717899647,0.1187241649772485,0.044769134262285536,0.010929093594857754,0.10332518778226812,
0.43994323177106054,0.03523253929283301,0.03615603249374929,0.025338778839507133,0.1185366915239343,0.04495514291237731,0.01094343151383432,0.1034795314177033,
0.4407373531280463,0.035196840686712104,0.03620497753979413,0.025311841521254166,0.11834360034469223,0.045139579269384514,0.010957663078050147,0.1036327030128769,
0.4415314744850356,0.035160574312429194,0.03625423371483763,0.025283746835890443,0.11814505074281674,0.045322401633995306,0.010971802200590101,0.10378476228792896,
0.44232559584202136,0.03512376431775841,0.036303790346200564,0.025254516890947657,0.11794120596178964,0.04550356973299645,0.010985863062007504,0.10393576924628951,
0.44311971719901067,0.035086435407165335,0.03635363705548852,0.025224174279254122,0.1177322330866608,0.04568304474940272,0.010999860098567718,0.10408578414245429,
0.4439138385559964,0.035048612832130836,0.03640376375009686,0.025192742068114286,0.11751830294233188,0.04586078935187049,0.011013807990235523,0.1042348674496749,
0.44470795991298573,0.03501032238089245,0.03645416061451469,0.02516024378825184,0.1172995899887957,0.046036767723372556,0.011027721648415121,0.10438307982757764,
0.4455020812699715,0.03497159036760118,0.0365048181014375,0.02512670342251833,0.11707627221338718,0.04621094558911083,0.011041616203451772,0.10453048208972575,
0.4462962026269608,0.03493244362089222,0.03655572692269823,0.025092145394369464,0.1168485310201039,0.04638329024364445,0.011055506991904373,0.1046771351711391,
0.44709032398394655,0.03489290947186845,0.036606878040027,0.025056594556111384,0.11661655111605691,0.0465537705772106,0.01106940954359845,0.10482310009578559,
0.44788444534093586,0.03485301574149619,0.03665826265564943,0.02502007617691954,0.1163805203951156,0.046722357101215854,0.011083339568469262,0.10496843794405859,
0.4486785666979216,0.03481279072741307,0.036709872202733876,0.024982615930632796,0.11614062981881218,0.04688902197287553,0.01109731294320503,0.10511320982025392,
0.4494726880549109,0.03477226319014829,0.03676169833569829,0.024944239883325826,0.11589707329457523,0.04705373901897943,0.011111345697700344,0.10525747682005998,
0.4502668094118967,0.03473146233875639,0.036813732920387025,0.024904974480662964,0.11565004755136304,0.04721648375876196,0.011125454001330136,0.10540129999807471,
0.451060930768886,0.03469041781586595,0.03686596802412861,0.024864846535037025,0.11539975201277138,0.04737723342585554,0.011139654149054615,0.10554474033536268,
0.45185505212587174,0.03464915968214526,0.03691839590568529,0.024823883212496945,0.11514638866769229,0.047535966989305775,0.011153962547365906,0.10568785870706499,
0.45264917348286104,0.03460771840018758,0.036971009005105554,0.02478211201946832,0.11489016193860342,0.04769266517362734,0.011168395700087133,0.10583071585007442,
0.4534432948398468,0.03456612481781942,0.037023799933490815,0.02473956078927119,0.11463127854756926,0.047847310477880566,0.01118297019403499,0.10597337233078843,
0.4542374161968361,0.034524410150835794,0.037076761462687714,0.024696257668439737,0.11436994738003917,0.047999887193747856,0.011197702684556853,0.10611588851295192,
0.45503153755382186,0.03448260596516707,0.03712988651491743,0.02465223110284912,0.11410637934652923,0.04815038142259034,0.011212609880953645,0.10625832452560129,
0.45582565891081117,0.03444074415848279,0.03718316815235374,0.024607509823654738,0.1138407872422775,0.04829878109146484,0.011227708531799876,0.10640074023112078,
0.4566197802677969,0.03439885694123856,0.03723659956666159,0.024562122833049656,0.11357338560496466,0.04844507596808214,0.01124301541017217,0.10654319519342229,
0.4574139016247827,0.0343569768171729,0.03729017406850781,0.024516099389846398,0.113304390570595,0.04858925767468758,0.01125854729879789,0.10668574864625925,
0.458208022981772,0.034315136563261746,0.03734388507705618,0.024469468994889602,0.1130340197276346,0.048731319700845474,0.011274320975135425,0.10682845946168472,
0.45900214433875774,0.034273369209138954,0.03739772610945839,0.02442226137630632,0.11276249196950676,0.04887125741510915,0.011290353196397845,0.10697138611866344,
0.45979626569574705,0.03423170801599215,0.037451690770353194,0.024374506474601362,0.11249002734554611,0.04900906807555919,0.011306660684531565,0.10711458667184721,
0.4605903870527328,0.03419018645494395,0.03750577274138541,0.024326234427605176,0.11221684691051623,0.049144750839192404,0.011323260111161842,0.10725811872052307,
0.4613845084097221,0.03414883818492957,0.037559965770757035,0.024277475555282417,0.11194317257279722,0.04927830677014508,0.011340168082516821,0.10740203937774279,
0.46217862976670787,0.034107697030082734,0.037614263662821945,0.024228260344409617,0.11166922694135221,0.049409738846733754,0.011357401124341944,0.10754640523964275,
0.4629727511236972,0.03406679695664252,0.037668660267736374,0.024178619433130703,0.1113952331715829,0.04953905196729815,0.011374975666816485,0.10769127235496158,
0.46376687248068293,0.03402617204939458,0.03772314947117661,0.024128583595399607,0.11112141481018709,0.04966625295483063,0.011392908029483931,0.10783669619476416,
0.46456099383767224,0.03398585648766143,0.03777772518413563,0.02407818372531934,0.11084799563913197,0.04979135056037772,0.011411214406207995,0.10798273162237904,
0.465355115194658,0.0339458845208567,0.037832381332810076,0.02402745082138752,0.11057519951885965,0.04991435546519938,0.01142991085016592,0.10812943286355674,
0.4661492365516473,0.033906290443619855,0.03788711184858879,0.023976415970658308,0.11030325023084099,0.050035280281672374,0.011449013258890682,0.10827685347685574,
0.46694335790863306,0.03386710857054795,0.03794191065815421,0.023925110332831262,0.11003237131959683,0.05015413955292502,0.011468537359373754,0.10842504632426274,
0.46773747926562237,0.03382837321054248,0.03799677167370746,0.0238735651242779,0.1097627859343058,0.05027094975119064,0.011488498693239787,0.10857406354205346,
0.4685316006226081,0.0337901186407897,0.03805168878332798,0.023821811602016903,0.10949471667011922,0.05038572927486803,0.011508912602004765,0.10872395651189988,
0.46932572197959743,0.03375237908039381,0.038106655841478175,0.02376988104764917,0.10922838540930452,0.05049849844427784,0.01152979421242884,0.10887477583222949,
0.4701198433365832,0.03371518866368322,0.03816166665966355,0.023717804751264015,0.1089640131623392,0.05060927949610457,0.01155115842197516,0.10902657128984154,
0.4709139646935725,0.03367858141321047,0.0382167149972583,0.023665613995328197,0.10870181990907798,0.05071809657651435,0.011573019884385775,0.10917939183178561,
0.47170808605055825,0.03364259121246766,0.038271794552506226,0.023613340038569384,0.10844202444011616,0.05082497573294017,0.011595392995385645,0.1093332855375072,
0.47250220740754756,0.033607251778339516,0.03832689895370669,0.023561014099865895,0.10818484419847259,0.050929944904526084,0.011618291878525653,0.1094882995912644,
0.4732963287645333,0.03357259663331729,0.038382021750595144,0.02350866734215459,0.10793049512171599,0.05103303391122363,0.01164173037117535,0.10964448025481995,
0.4740904501215226,0.033538659077496966,0.03843715640592708,0.02345633085636886,0.10767919148465815,0.05113427444153384,0.011665722010676175,0.10980187284041233,
0.4748845714785084,0.033505472160386296,0.038492296287274554,0.023404035645418625,0.10743114574273789,0.05123370003888985,0.01169028002066557,0.10996052168400977,
0.4756786928354977,0.03347306865254555,0.03854743465904392,0.023351812608224314,0.10718656837621929,0.05133134608667601,0.011715417297582483,0.11012047011885118,
0.47647281419248344,0.03344148101708765,0.0386025646747231,0.023299692523816702,0.10694566773532775,0.051427249791879896,0.011741146397364378,0.1102817604492767,
0.47726693554947275,0.0334107413810641,0.0386576793693665,0.023247706035514543,0.1067086498864468,0.0515214501673756,0.011767479522345975,0.110444433924852,
0.4780610569064585,0.033380881506763174,0.03871277165232558,0.023195883635191674,0.106475718459498,0.05161398801283714,0.011794428508369662,0.11060853071478934,
0.4788551782634478,0.03335193276294825,0.03876783430023264,0.023144255647645367,0.10624707449662671,0.05170490589428253,0.011822004812117431,0.11077408988266921,
0.47964929962043357,0.03332392609606373,0.0388228599502453,0.023092852215077356,0.1060229163023152,0.051794248122249774,0.011850219498673958,0.11094114936146572,
0.4804434209774229,0.03329689200143748,0.0388778410935586,0.023041703281699095,0.10580343929504363,0.05188206072860785,0.011879083229330435,0.11110974592888014,
0.48123754233440863,0.033270860494508406,0.03893277006919191,0.022990838578472467,0.10558883586061947,0.05196839144200665,0.011908606249638498,0.11127991518298644,
0.4820316636913944,0.03324586108210891,0.0389876390580571,0.022940287607996993,0.10537929520729487,0.05205328966197117,0.011938798377723438,0.11145169151819326,
0.4828257850483837,0.03322192273383204,0.03904244007731446,0.022890079629554496,0.10517500322279028,0.05213680643164719,0.011969668992865867,0.11162510810152751,
0.48361990640536945,0.03319907385351345,0.039097164975022365,0.022840243644322022,0.1049761423333425,0.052218994409206416,0.012001227024360683,0.11180019684924503,
0.48441402776235876,0.03317734225085926,0.03915180542508665,0.02279080838076339,0.10478289136489355,0.05229990783792107,0.012033480940662184,0.11197698840377424,
0.4852081491193445,0.033156755113250336,0.039206352922515404,0.02274180228020984,0.10459542540653602,0.05237960251491901,0.012066438738823928,0.11215551211099996,
0.4860022704763338,0.033137338977754636,0.039260798778984425,0.022693253482639716,0.10441391567632935,0.0524581357586323,0.012100107934241756,0.1123357959978945,
0.4867963918333196,0.03311911970337888,0.039315134118718564,0.022645189812667194,0.10423852938960002,0.052535566374953775,0.012134495550708302,0.11251786675050442,
0.4875905131903089,0.03310212244359113,0.03936934987469369,0.022597638765749443,0.1040694296298373,0.052611954622117096,0.012169608110787046,0.11270174969230204,
0.48838463454729464,0.0330863716191462,0.039423436785163975,0.022550627494621743,0.10390677522229474,0.05268736217431799,0.012205451626513871,0.11288746876291221,
0.48917875590428395,0.03307189089124554,0.03947738539051884,0.022504182795969507,0.103750720610406,0.05276185208409543,0.012242031590433812,0.11307504649722462,
0.4899728772612697,0.03305870313506381,0.03953118603047375,0.022458331097346008,0.10360141573512205,0.0528354887434932,0.01227935296698056,0.11326450400490391,
0.490766998618259,0.03304683041367371,0.03958482884159856,0.022413098444344512,0.10345900591727415,0.05290833784402358,0.012317420184206021,0.1134558609503097,
0.49156111997524476,0.033036293952401076,0.03963830375518722,0.02236851048803279,0.10332363174306589,0.0529804663354563,0.012356237125867055,0.11364913553284023,
0.4923552413322341,0.033027114113641745,0.03969160049547198,0.022324592472658156,0.10319542895279497,0.05305194238345744,0.012395807123876366,0.11384434446771477,
0.49314936268921983,0.03301931037217182,0.039744708578185226,0.022281369223630595,0.10307452833290416,0.05312283532610369,0.012436132951124168,0.1140415029672095,
0.49394348404620914,0.03301290129098256,0.039797617309471595,0.02223886513579132,0.10296105561145732,0.05319321562929921,0.012477216814677183,0.11424062472236368,
0.4947376054031949,0.033007904497670916,0.03985031578515296,0.02219710416197397,0.10285513135713534,0.05326315484112328,0.012519060349361179,0.11444172188517325,
0.4955317267601842,0.03300433666141646,0.039902792890348225,0.022156109801865168,0.10275687088184324,0.05333272554513794,0.012561664611733123,0.11464480505129046,
0.49632584811716995,0.033002213470575054,0.039955037299449866,0.022115905091170927,0.10266638414701797,0.05340200131268622,0.012605030074448768,0.11484988324324844,
0.49711996947415926,0.033001549610919056,0.04000703747645858,0.022076512591095294,0.10258377567372308,0.05347105665421277,0.012649156621031228,0.11505696389423145,
0.497914090831145,0.03300235874455364,0.04005878167567723,0.022037954378136916,0.10250914445661458,0.053539966969639086,0.012694043541045924,0.11526605283241168,
0.4987082121881343,0.03300465348953797,0.04011025794276486,0.02200025203420926,0.10244258388185816,0.0536088084978273,0.012739689525686944,0.11547715426587418,
0.4995023335451201,0.03300844540023977,0.0401614541161513,0.021963426637089875,0.10238418164907616,0.053677658265166926,0.012786092663779745,0.11569027076815294,
0.5002964549021094,0.03301374494845102,0.040212357828812356,0.0219274987512037,0.10233401969739886,0.05374659403331993,0.012833250438204755,0.1159054032644011,
0.5010905762590951,0.03302056150529168,0.04026295651040548,0.021892488418745165,0.1022921741356916,0.053815694246160554,0.012881159722746238,0.11612255101821935,
0.5018846976160845,0.03302890332392817,0.04031323738976519,0.021858415151143527,0.10225871517702645,0.053885037975946834,0.012929816779370527,0.11634171161916658,
0.5026788189730702,0.033038777523131835,0.04036318749775735,0.02182529792087563,0.10223370707746321,0.053954704868761805,0.01297921725593748,0.11656288097097768,
0.5034729403300595,0.03305019007170279,0.04041279367049091,0.021793155153629843,0.10221720807920162,0.05402477508926257,0.01302935618434866,0.11678605328051378,
0.5042670616870453,0.03306314577378293,0.04046204255288542,0.021762004720824856,0.10220927035816263,0.05409532926477624,0.013080227979135627,0.11701122104746998,
0.505061183044031,0.03307764825508143,0.040510920602592315,0.021731863932486398,0.10220993997605353,0.054166448428782474,0.013131826436491318,0.11723837505486633,
0.5058553044010203,0.03309369995003514,0.04055941409426726,0.021702749530484955,0.10221925683696848,0.05423821396382268,0.013184144733747316,0.11746750436034788,
0.5066494257580061,0.03311130208992514,0.04060750912419111,0.021674677682137,0.10223725464857109,0.05431070754387646,0.013237175429299511,0.11769859628831968,
0.5074435471149954,0.03313045469197009,0.040655191615236064,0.02164766397417203,0.10226396088790358,0.054384011076246276,0.013290910462984373,0.11793163642294226,
0.5082376684719812,0.03315115654941558,0.04070244732217361,0.021621723407067413,0.10229939677186223,0.05445820664299202,0.013345341156907825,0.11816660860201336,
0.5090317898289705,0.033173405222638216,0.040749261837320375,0.021596870389752706,0.10234357723237507,0.054533376441956986,0.013400458216728329,0.11840349491176169,
0.5098259111859562,0.03319719703128161,0.04079562059651743,0.021573118734684753,0.1023965108963153,0.05460960272742745,0.013456251733395645,0.11864227568257803,
0.5106200325429455,0.03322252704744066,0.04084150888543852,0.02155048165329457,0.1024582000701783,0.05468696775046838,0.013512711185346374,0.11888292948570885,
0.5114141538999313,0.033249389089909355,0.040886911846222146,0.02152897175180695,0.10252864072954819,0.05476555369897767,0.01356982544115715,0.11912543313093787,
0.5122082752569206,0.03327777571950607,0.04093181448442228,0.021508601027432975,0.1026078225133738,0.0548454426375018,0.013627582762656043,0.11936976166527988,
0.5130023966139063,0.033307678235489226,0.04097620167627204,0.021489380864935775,0.10269572872307238,0.054926716446855914,0.013685970808492426,0.11961588837271125,
0.5137965179708956,0.0333390866730752,0.04102005817625426,0.021471322033569287,0.10279233632647415,0.05500945676359103,0.013744976638165334,0.11986378477496101,
0.5145906393278814,0.03337198980206882,0.04106336862497263,0.02145443468438959,0.10289761596661719,0.05509374491935177,0.013804586716509918,0.12011342063338655,
0.5153847606848707,0.03340637512661596,0.04110611755731676,0.02143872834793815,0.10301153197539865,0.05517966188016749,0.013864786918641481,0.12036476395195642,
0.5161788820418565,0.03344222888608623,0.04114828941091434,0.02142421193229583,0.10313404239208394,0.05526728818571974,0.013925562535356114,0.12061778098136282,
0.5169730033988458,0.03347953605709264,0.041189868534862964,0.021410893721506417,0.10326509898667226,0.05535670388862906,0.013986898278986717,0.12087243622428595,
0.5177671247558315,0.033518280356653975,0.04123083919873411,0.02139878137436802,0.10340464728811237,0.05544798849380367,0.01404877828971295,0.12112869244183114,
0.5185612461128208,0.03355844424650415,0.04127118560184148,0.021387881923590434,0.10355262661735955,0.05554122089789286,0.014111186142323201,0.12138651066115957,
0.5193553674698066,0.033600008938551806,0.04131089188276577,0.021378201775316293,0.1037089701252599,0.05563647932888758,0.014174104853426548,0.1216458501843326,
0.5201494888267959,0.033642954401491926,0.04134994212912732,0.021369746709003493,0.10387360483524521,0.05573384128591061,0.014237516889112177,0.1219066685983884,
0.5209436101837817,0.033687259368570095,0.0413883203875985,0.021362521877666157,0.10404645169081779,0.05583338347923816,0.014301404173053546,0.12216892178666987,
0.521737731540771,0.03373290134649885,0.04142601067414682,0.021356531808471045,0.10422742560780032,0.055935181770595054,0.014365748095054214,0.1224325639414212,
0.5225318528977567,0.03377985662552411,0.04146299698450007,0.02135178040368629,0.10441643553132308,0.05603931111376494,0.014430529520031899,0.12269754757766996,
0.523325974254746,0.0338281002906386,0.0414992633048241,0.021348270941978758,0.10461338449751599,0.05614584549555698,0.014495728797437072,0.12296382354841046,
0.5241200956117318,0.03387760623393796,0.04153479362260442,0.02134600608005636,0.10481816969987073,0.056254857877169766,0.014561325771102012,0.12323134106110344,
0.5249142169687211,0.03392834716811372,0.041569571937721796,0.02134498785465125,0.10503068256023389,0.05636642013599341,0.014627299789515937,0.1235000476955066,
0.5257083383257068,0.03398029464107663,0.041603582273712685,0.02134521768483965,0.105250808804388,0.05648060300789012,0.014693629716521595,0.12376988942284849,
0.5265024596826962,0.03403341905170174,0.041636808689204635,0.02134669637469381,0.10547842854217503,0.0565974760299933,0.014760293942428188,0.12404081062635866,
0.5272965810396819,0.03408768966668656,0.04166923528951724,0.021349424116261364,0.10571341635211208,0.05671710748406512,0.014827270395535289,0.124312754123165,
0.5280907023966677,0.034143074638511274,0.04170084623841841,0.02135340049286723,0.10595564137044634,0.05683956434045169,0.014894536554062046,0.12458566118756853,
0.528884823753657,0.03419954102448974,0.04173162577002649,0.021358624482732846,0.10620496738459247,0.0569649122026749,0.014962069458475682,0.12485947157570529,
0.5296789451106427,0.034257054806898085,0.041761558200847926,0.021365094462907484,0.10646125293089204,0.057093215252699274,0.015029845724212903,0.1251341235516035,
0.530473066467632,0.034315580914167094,0.04179062794194063,0.02137280821350612,0.10672435139663157,0.05722453619691234,0.015097841554787507,0.12540955391464276,
0.5312671878246178,0.03437508324312301,0.04181881951119278,0.02138176292224826,0.10699411112625165,0.057358936212855975,0.015166032755277252,0.12568569802842183,
0.5320613091816071,0.034435524682260604,0.041846117545707225,0.021391955189291777,0.1072703755316768,0.05749647489674588,0.015234394746182621,0.12596248985103958,
0.5328554305385929,0.03449686713603097,0.041872506814280785,0.02140338103235598,0.10755298320669193,0.05763721021181624,0.015302902577649786,0.12623986196679357,
0.5336495518955822,0.03455907155012556,0.04189797222996869,0.02141603589212777,0.10784176804528808,0.057781198437525536,0.01537153094404979,0.12651774561929888,
0.5344436732525679,0.03462209793773682,0.04192249886272341,0.021429914637944664,0.10813655936389632,0.057928494119659356,0.015440254198905608,0.12679607074602825,
0.5352377946095572,0.034685905406774756,0.0419460719520979,0.02144501157374839,0.10843718202742575,0.058079150021365336,0.015509046370158468,0.12707476601427428,
0.536031915966543,0.0347504521880177,0.04196867692000259,0.021461320444302708,0.10874345657901759,0.05823321707515492,0.015577881175764429,0.12735375885853278,
0.5368260373235323,0.03481569566417482,0.041990299383505625,0.0214788344416689,0.10905519937342464,0.05839074433590596,0.01564673203961199,0.12763297551930441,
0.537620158680518,0.03488159239983648,0.042010925167665955,0.02149754621193257,0.10937222271392158,0.058551778934899545,0.01571557210775102,0.12791234108331223,
0.5384142800375074,0.034948098172288014,0.04203054031838859,0.02151744786217507,0.10969433499264848,0.05871636603492401,0.01578437426492307,0.1281917795251291,
0.5392084013944931,0.03501516800316134,0.04204913111529157,0.021538530967682924,0.1100213408342867,0.058884548786478454,0.01585311115138286,0.1284712137502098,
0.5400025227514824,0.03508275619089787,0.04206668408457389,0.0215607865793887,0.11035304124296288,0.05905636828510746,0.015921755180000274,0.1287505656393185,
0.5407966441084682,0.03515081634399552,0.04208318601187372,0.02158420523153652,0.11068923375227323,0.05923186352989811,0.015990278553631984,0.12902975609434317,
0.5415907654654575,0.035219301415011506,0.04209862395510615,0.021608776949565728,0.11102971257831826,0.05941107138316982,0.016058653282751446,0.12930870508548528,
0.5423848868224432,0.03528816373529194,0.04211298525726978,0.021634491258205883,0.11137426877563332,0.0595940265313869,0.016126851203325774,0.12958733169981196,
0.5431790081794325,0.035357355050398304,0.04212625755921126,0.021661337189776683,0.11172269039589892,0.05978076144732288,0.016194843994927537,0.12986555419115672,
0.5439731295364183,0.035426826556200115,0.04213842881233714,0.021689303292685973,0.11207476264931046,0.05997130635350538,0.016262603199069484,0.13014329003135183,
0.5447672508934076,0.03549652893560215,0.042149487291261827,0.02171837764011937,0.1124302680684849,0.060165689186969254,0.016330100237749546,0.1304204559627752,
0.5455613722503934,0.03556641239587397,0.04215942160638115,0.02174854783891488,0.11278898667477825,0.06036393556534534,0.016397306432193462,0.13069696805219175,
0.5463554936073827,0.03563642670654854,0.04216822071636035,0.021779801038616046,0.11315069614688501,0.060566068754311454,0.016464193021781898,0.13097274174586737,
0.5471496149643684,0.03570652123785627,0.04217587394052601,0.021812123940697082,0.11351517199158832,0.06077210963643105,0.01653073118314862,0.1312476919259321,
0.5479437363213577,0.03577664499965973,0.04218237097115058,0.02184550280795358,0.11388218771652688,0.06098207668140498,0.016596892049436183,0.1315217329679667,
0.5487378576783435,0.035846746680854115,0.04218770188561909,0.021879923474052376,0.11425151500484132,0.06119598591776015,0.016662646729695054,0.13179477879978424,
0.5495319790353328,0.0359167746891973,0.04219185715846692,0.021915371353234223,0.11462292389156123,0.06141385090599892,0.016727966328412013,0.1320667429613776,
0.5503261003923186,0.03598667719153312,0.04219482767327815,0.021951831450162867,0.11499618294159081,0.06163568271323181,0.016792821965153193,0.13233753866599976,
0.5511202217493043,0.036056402154370795,0.04219660473443361,0.021989288369914397,0.11537105942914928,0.06186148988931527,0.016857184794307076,0.1326070788623426,
0.5519143431062936,0.036125897384782744,0.042197180078698215,0.022027726328100482,0.11574731951851945,0.06209127844451579,0.016921026024912352,0.13287527629777723,
0.5527084644632794,0.03619511057158278,0.042196545886636835,0.02206712916111938,0.11612472844595623,0.062325051828720314,0.016984316940555317,0.13314204358261697,
0.5535025858202687,0.03626398932674595,0.042194694793848624,0.022107480336528602,0.11650305070260442,0.06256281091221247,0.017047028919321274,0.13340729325536047,
0.5542967071772544,0.03633248122703117,0.042191619902009286,0.022148762963533183,0.11688205021827329,0.06280455396803308,0.017109133453784175,0.13367093784887124,
0.5550908285342437,0.036400533855767116,0.04218731478971131,0.022190959803583463,0.11726149054591381,0.06305027665594251,0.017170602171018505,0.13393288995744634,
0.5558849498912295,0.036468094844761795,0.04218177352309231,0.022234053281076593,0.11764113504664245,0.06329997200800146,0.017231406852617197,0.13419306230472533,
0.5566790712482188,0.03653511191629572,0.04217499066624159,0.02227802549415572,0.1180207470751541,0.06355363041578624,0.017291519454699228,0.13445136781238687,
0.5574731926052046,0.036601532925158234,0.042166961291375274,0.022322858225601285,0.11840009016536483,0.0638112396192535,0.0173509121278902,0.13470771966957878,
0.5582673139621939,0.0366673059006869,0.0421576809887707,0.022368532953808546,0.11877892821612465,0.06407278469726832,0.017409557237259295,0.13496203140302468,
0.5590614353191796,0.03673237908876911,0.0421471458764508,0.022415030863845827,0.11915702567683845,0.06433824805980895,0.017467427382195665,0.13521421694774644,
0.5598555566761689,0.036796700993765426,0.04213535260960938,0.02246233285858795,0.1195341477328327,0.06460760944186054,0.017524495416207347,0.1354641907183411,
0.5606496780331547,0.03686022042031374,0.04212229838976865,0.02251041956991952,0.11991006049030468,0.06488084589900932,0.017580734466625524,0.1357118676807459,
0.561443799390144,0.036922886514973864,0.04210798097366008,0.022559271370002746,0.12028453116068978,0.06515793180474763,0.017636117954197054,0.13595716342442535,
0.5622379207471297,0.036984648807671404,0.04209239868182022,0.022608868382604595,0.12065732824428231,0.06543883884949976,0.017690619612547996,0.1361999942349096,
0.5630320421041191,0.037045457252900725,0.04207555040689305,0.022659190494478326,0.12102822171294542,0.06572353604137716,0.017744213507500814,0.136440277166612,
0.5638261634611048,0.037105262270646304,0.04205743562163066,0.022710217366794478,0.12139698319174451,0.06601198970867093,0.01779687405622799,0.13667793011585083,
0.5646202848180941,0.03716401478698222,0.0420380543865847,0.022761928446616512,0.12176338613933914,0.06630416350408845,0.017848576046224758,0.136912871893999,
0.5654144061750799,0.037221666274309874,0.0420174073574801,0.022814302978416506,0.12212720602696786,0.06660001841074,0.01789929465408371,0.13714502230068212,
0.5662085275320692,0.03727816879119424,0.04199549579226404,0.02286732001562638,0.12248822051586214,0.06689951274988043,0.017949005464054035,0.1373743021969439,
0.5670026488890549,0.0373334750217592,0.041972321557822136,0.02292095843222028,0.12284620963292432,0.06720260219040952,0.017997684486368314,0.13760063357829538,
0.5677967702460442,0.037387538314603064,0.04194788713635481,0.022975196934323854,0.12320095594450706,0.06750923976013401,0.01804530817531971,0.13782393964756404,
0.56859089160303,0.037440312721195836,0.04192219563140637,0.023030014071846343,0.12355224472813159,0.06781937585879287,0.018091853447072804,0.13804414488745528,
0.5693850129600193,0.03749175303372027,0.04189525077353991,0.02308538825013144,0.12389986414198403,0.0681329582728466,0.01813729769719113,0.1382611751327389,
0.5701791343170051,0.03754181482231929,0.04186705692565103,0.023141297741623018,0.12424360539202961,0.06844993219202987,0.018181618817864974,0.13847495764197082,
0.5709732556739944,0.03759045447171303,0.04183761908791365,0.023197720697541904,0.12458326289658674,0.06877024022766588,0.018224795214822884,0.13868542116865956,
0.5717673770309801,0.037637629217149596,0.04180694290235122,0.023254635159569853,0.1249186344482047,0.06909382243273939,0.018266805823910805,0.13889249603178544,
0.5725614983879694,0.03768329717965393,0.04177503465702695,0.02331201907153711,0.12524952137269083,0.06942061632372426,0.01830763012732268,0.1390961141855804,
0.5733556197449552,0.03772741740054042,0.041741901289846915,0.02336985029110978,0.12557572868513475,0.06975055690416021,0.018347248169466954,0.13929620928847478,
0.5741497411019445,0.03776994987515545,0.04170755039196989,0.023428106601473483,0.1258970652427801,0.07008357668997181,0.018385640572453392,0.1394927167711177,
0.5749438624589303,0.03781085558581698,0.041671990210817925,0.02348676572300959,0.1262133438945968,0.07041960573652196,0.018422788551185152,0.13968557390337635,
0.575737983815916,0.03785009653391922,0.04163522965268202,0.023545805324960478,0.12652438162740984,0.07075857166739051,0.018458673928041177,0.13987471986022018,
0.5765321051729053,0.03788763577117153,0.04159727828491732,0.02360520303708003,0.126829999708444,0.07110039970486727,0.018493279147134396,0.140060095786395,
0.5773262265298911,0.0379234374299414,0.04155814633772248,0.02366493646126585,0.12713002382414657,0.07144501270214766,0.018526587288131592,0.14024164485979385,
0.5781203478868804,0.037957466752672815,0.041517844705498144,0.023724983183169335,0.1274242842151538,0.07179233117721782,0.018558582079621133,0.14041931235342944,
0.5789144692438661,0.03798969012035203,0.04147638494777925,0.023785320783780043,0.127712615807271,0.07214227334841469,0.018589247912015182,0.14059304569591596,
0.5797085906008554,0.038020075079994234,0.041433779289736426,0.023845926850980435,0.12799485833833962,0.07249475517164504,0.018618569849973482,0.1407627945303666,
0.5805027119578412,0.038048590371125596,0.04139004062224198,0.023906778991067336,0.12827085648086992,0.07284969037924674,0.018646533644336067,0.1409285107716161,
0.5812968333148305,0.03807520595123666,0.04134518250149592,0.023967854840236138,0.1285404599603208,0.07320699052047347,0.018673125743552836,0.1410901486616771,
0.5820909546718163,0.038099893020183954,0.04129921914820772,0.024029132076023925,0.12880352366891368,0.07356656500358333,0.01869833330459842,0.14124766482334172,
0.5828850760288056,0.03812262404351833,0.041252165446329904,0.024090588428707496,0.12905990777487253,0.07392832113951012,0.018722144203361272,0.1414010183118406,
0.5836791973857913,0.0381433727747197,0.041204036941339596,0.02415220169265233,0.1293094778269863,0.07429216418709525,0.018744547044496292,0.14155017066447345,
